time,amplitude
0.0,-0.275
0.004,-0.295
0.008,-0.31
0.012,-0.315
0.016,-0.3
0.02,-0.32
0.024,-0.3
0.028,-0.3
0.032,-0.29
0.036,-0.28
0.04,-0.295
0.044,-0.29
0.048,-0.305
0.052,-0.315
0.056,-0.32
0.06,-0.295
0.064,-0.295
0.068,-0.305
0.072,-0.275
0.076,-0.25
0.08,-0.23
0.084,-0.19
0.088,-0.175
0.092,-0.165
0.096,-0.17
0.1,-0.14
0.104,-0.145
0.108,-0.12
0.112,-0.12
0.116,-0.11
0.12,-0.115
0.124,-0.09
0.128,-0.1
0.132,-0.13
0.136,-0.16
0.14,-0.215
0.144,-0.23
0.148,-0.285
0.152,-0.28
0.156,-0.32
0.16,-0.31
0.164,-0.31
0.168,-0.32
0.172,-0.34
0.176,-0.335
0.18,-0.34
0.184,-0.36
0.188,-0.31
0.192,-0.26
0.196,-0.18
0.2,0.03
0.204,0.35
0.208,0.695
0.212,0.86
0.216,1.03
0.22,0.995
0.224,0.42
0.228,-0.58
0.232,-1.345
0.236,-1.695
0.24,-1.77
0.244,-1.65
0.248,-1.375
0.252,-1.0
0.256,-0.74
0.26,-0.595
0.264,-0.495
0.268,-0.445
0.272,-0.44
0.276,-0.435
0.28,-0.44
0.284,-0.43
0.288,-0.425
0.292,-0.41
0.296,-0.39
0.3,-0.415
0.304,-0.425
0.308,-0.405
0.312,-0.445
0.316,-0.445
0.32,-0.455
0.324,-0.46
0.328,-0.465
0.332,-0.475
0.336,-0.455
0.34,-0.43
0.344,-0.45
0.348,-0.47
0.352,-0.45
0.356,-0.46
0.36,-0.5
0.364,-0.5
0.368,-0.51
0.372,-0.505
0.376,-0.52
0.38,-0.5
0.384,-0.52
0.388,-0.525
0.392,-0.53
0.396,-0.56
0.4,-0.61
0.404,-0.61
0.408,-0.645
0.412,-0.655
0.416,-0.66
0.42,-0.665
0.424,-0.685
0.428,-0.695
0.432,-0.7
0.436,-0.72
0.44,-0.78
0.444,-0.8
0.448,-0.8
0.452,-0.81
0.456,-0.83
0.46,-0.84
0.464,-0.845
0.468,-0.865
0.472,-0.87
0.476,-0.87
0.48,-0.875
0.484,-0.885
0.488,-0.91
0.492,-0.9
0.496,-0.9
0.5,-0.895
0.504,-0.84
0.508,-0.79
0.512,-0.73
0.516,-0.675
0.52,-0.64
0.524,-0.59
0.528,-0.56
0.532,-0.48
0.536,-0.43
0.54,-0.4
0.544,-0.355
0.548,-0.31
0.552,-0.29
0.556,-0.245
0.56,-0.22
0.564,-0.21
0.568,-0.225
0.572,-0.22
0.576,-0.205
0.58,-0.23
0.584,-0.25
0.588,-0.24
0.592,-0.235
0.596,-0.24
0.6,-0.24
0.604,-0.22
0.608,-0.22
0.612,-0.215
0.616,-0.225
0.62,-0.26
0.624,-0.26
0.628,-0.27
0.632,-0.295
0.636,-0.28
0.64,-0.285
0.644,-0.275
0.648,-0.27
0.652,-0.255
0.656,-0.265
0.66,-0.275
0.664,-0.3
0.668,-0.315
0.672,-0.315
0.676,-0.3
0.68,-0.305
0.684,-0.295
0.688,-0.29
0.692,-0.305
0.696,-0.28
0.7,-0.305
0.704,-0.315
0.708,-0.305
0.712,-0.305
0.716,-0.295
0.72,-0.295
0.724,-0.295
0.728,-0.29
0.732,-0.27
0.736,-0.25
0.74,-0.27
0.744,-0.255
0.748,-0.25
0.752,-0.3
0.756,-0.23
0.76,0.005
0.764,0.4
0.768,0.74
0.772,1.035
0.776,0.91
0.78,0.115
0.784,-0.875
0.788,-1.46
0.792,-1.715
0.796,-1.725
0.8,-1.59
0.804,-1.365
0.808,-1.005
0.812,-0.64
0.816,-0.35
0.82,-0.165
0.824,-0.13
0.828,-0.115
0.832,-0.145
0.836,-0.145
0.84,-0.165
0.844,-0.19
0.848,-0.195
0.852,-0.2
0.856,-0.2
0.86,-0.175
0.864,-0.19
0.868,-0.21
0.872,-0.23
0.876,-0.23
0.88,-0.27
0.884,-0.29
0.888,-0.33
0.892,-0.325
0.896,-0.33
0.9,-0.355
0.904,-0.36
0.908,-0.345
0.912,-0.32
0.916,-0.33
0.92,-0.33
0.924,-0.36
0.928,-0.365
0.932,-0.4
0.936,-0.42
0.94,-0.43
0.944,-0.45
0.948,-0.47
0.952,-0.455
0.956,-0.47
0.96,-0.47
0.964,-0.505
0.968,-0.52
0.972,-0.57
0.976,-0.595
0.98,-0.61
0.984,-0.63
0.988,-0.64
0.992,-0.65
0.996,-0.65
1.0,-0.64
1.004,-0.64
1.008,-0.635
1.012,-0.655
1.016,-0.665
1.02,-0.67
1.024,-0.655
1.028,-0.625
1.032,-0.615
1.036,-0.56
1.04,-0.5
1.044,-0.455
1.048,-0.395
1.052,-0.34
1.056,-0.295
1.06,-0.24
1.064,-0.22
1.068,-0.195
1.072,-0.145
1.076,-0.11
1.08,-0.07
1.084,-0.05
1.088,-0.03
1.092,-0.03
1.096,-0.03
1.1,-0.025
1.104,-0.05
1.108,-0.07
1.112,-0.08
1.116,-0.08
1.12,-0.1
1.124,-0.11
1.128,-0.105
1.132,-0.1
1.136,-0.1
1.14,-0.115
1.144,-0.125
1.148,-0.13
1.152,-0.15
1.156,-0.145
1.16,-0.16
1.164,-0.16
1.168,-0.15
1.172,-0.135
1.176,-0.15
1.18,-0.145
1.184,-0.17
1.188,-0.17
1.192,-0.19
1.196,-0.18
1.2,-0.195
1.204,-0.21
1.208,-0.21
1.212,-0.21
1.216,-0.195
1.22,-0.17
1.224,-0.15
1.228,-0.165
1.232,-0.195
1.236,-0.195
1.24,-0.22
1.244,-0.21
1.248,-0.24
1.252,-0.225
1.256,-0.205
1.26,-0.19
1.264,-0.145
1.268,-0.115
1.272,-0.07
1.276,0.005
1.28,0.06
1.284,0.09
1.288,0.11
1.292,0.14
1.296,0.12
1.3,0.06
1.304,0.06
1.308,0.035
1.312,0.01
1.316,-0.04
1.32,-0.095
1.324,-0.13
1.328,-0.19
1.332,-0.24
1.336,-0.265
1.34,-0.29
1.344,-0.27
1.348,-0.27
1.352,-0.265
1.356,-0.255
1.36,-0.255
1.364,-0.245
1.368,-0.24
1.372,-0.24
1.376,-0.2
1.38,-0.165
1.384,-0.14
1.388,0.01
1.392,0.295
1.396,0.66
1.4,0.87
1.404,1.045
1.408,1.105
1.412,0.715
1.416,-0.24
1.42,-1.11
1.424,-1.545
1.428,-1.645
1.432,-1.585
1.436,-1.345
1.44,-1.0
1.444,-0.715
1.448,-0.51
1.452,-0.41
1.456,-0.36
1.46,-0.33
1.464,-0.3
1.468,-0.33
1.472,-0.3
1.476,-0.305
1.48,-0.3
1.484,-0.285
1.488,-0.28
1.492,-0.28
1.496,-0.26
1.5,-0.255
1.504,-0.255
1.508,-0.3
1.512,-0.32
1.516,-0.33
1.52,-0.32
1.524,-0.305
1.528,-0.335
1.532,-0.3
1.536,-0.295
1.54,-0.3
1.544,-0.28
1.548,-0.31
1.552,-0.335
1.556,-0.36
1.56,-0.37
1.564,-0.395
1.568,-0.415
1.572,-0.42
1.576,-0.41
1.58,-0.41
1.584,-0.44
1.588,-0.41
1.592,-0.43
1.596,-0.475
1.6,-0.495
1.604,-0.52
1.608,-0.53
1.612,-0.54
1.616,-0.565
1.62,-0.57
1.624,-0.585
1.628,-0.59
1.632,-0.615
1.636,-0.64
1.64,-0.675
1.644,-0.7
1.648,-0.72
1.652,-0.715
1.656,-0.7
1.66,-0.745
1.664,-0.71
1.668,-0.705
1.672,-0.705
1.676,-0.69
1.68,-0.68
1.684,-0.69
1.688,-0.66
1.692,-0.655
1.696,-0.61
1.7,-0.55
1.704,-0.49
1.708,-0.405
1.712,-0.35
1.716,-0.3
1.72,-0.23
1.724,-0.195
1.728,-0.14
1.732,-0.1
1.736,-0.09
1.74,-0.05
1.744,-0.03
1.748,0.005
1.752,0.015
1.756,0.055
1.76,0.065
1.764,0.06
1.768,0.08
1.772,0.06
1.776,0.035
1.78,0.045
1.784,0.03
1.788,0.05
1.792,0.035
1.796,0.045
1.8,0.06
1.804,0.09
1.808,0.085
1.812,0.08
1.816,0.055
1.82,0.05
1.824,0.025
1.828,0.02
1.832,0.02
1.836,0.035
1.84,0.035
1.844,0.025
1.848,0.045
1.852,0.02
1.856,0.035
1.86,0.045
1.864,0.01
1.868,-0.015
1.872,-0.02
1.876,-0.015
1.88,-0.005
1.884,-0.01
1.888,0.01
1.892,0.04
1.896,0.03
1.9,0.035
1.904,0.025
1.908,0.015
1.912,0.025
1.916,0.03
1.92,0.015
1.924,0.0
1.928,-0.01
1.932,0.015
1.936,0.03
1.94,0.035
1.944,0.015
1.948,0.005
1.952,0.005
1.956,-0.02
1.96,-0.01
1.964,-0.015
1.968,0.0
1.972,-0.005
1.976,0.005
1.98,0.01
1.984,0.02
1.988,0.01
1.992,0.0
1.996,-0.005
2.0,0.015
2.004,0.0
2.008,0.02
2.012,0.005
2.016,0.025
2.02,0.035
2.024,0.045
2.028,0.06
2.032,0.06
2.036,0.045
2.04,0.01
2.044,0.02
2.048,0.005
2.052,0.015
2.056,0.02
2.06,0.01
2.064,0.02
2.068,0.05
2.072,0.045
2.076,0.025
2.08,0.03
2.084,0.025
2.088,0.02
2.092,0.015
2.096,0.02
2.1,0.04
2.104,0.06
2.108,0.045
2.112,0.035
2.116,0.025
2.12,0.025
2.124,0.02
2.128,0.02
2.132,0.01
2.136,-0.01
2.14,0.005
2.144,0.015
2.148,0.035
2.152,0.035
2.156,0.005
2.16,0.03
2.164,0.06
2.168,0.04
2.172,0.025
2.176,0.045
2.18,0.02
2.184,0.015
2.188,0.015
2.192,0.035
2.196,0.025
2.2,0.055
2.204,0.095
2.208,0.12
2.212,0.155
2.216,0.19
2.22,0.175
2.224,0.17
2.228,0.15
2.232,0.17
2.236,0.205
2.24,0.23
2.244,0.245
2.248,0.255
2.252,0.315
2.256,0.26
2.26,0.205
2.264,0.18
2.268,0.13
2.272,0.06
2.276,0.03
2.28,0.02
2.284,0.0
2.288,-0.035
2.292,-0.045
2.296,-0.025
2.3,0.0
2.304,0.005
2.308,0.02
2.312,0.04
2.316,0.12
2.32,0.17
2.324,0.34
2.328,0.635
2.332,1.025
2.336,1.26
2.34,1.495
2.344,1.53
2.348,1.05
2.352,0.12
2.356,-0.73
2.36,-1.215
2.364,-1.275
2.368,-1.185
2.372,-1.07
2.376,-0.85
2.38,-0.56
2.384,-0.315
2.388,-0.165
2.392,-0.12
2.396,-0.09
2.4,-0.07
2.404,-0.065
2.408,-0.06
2.412,-0.065
2.416,-0.04
2.42,-0.025
2.424,-0.02
2.428,-0.02
2.432,-0.015
2.436,-0.02
2.44,-0.015
2.444,-0.04
2.448,-0.045
2.452,-0.04
2.456,-0.04
2.46,0.0
2.464,0.005
2.468,-0.005
2.472,0.0
2.476,-0.01
2.48,-0.03
2.484,-0.065
2.488,-0.08
2.492,-0.11
2.496,-0.12
2.5,-0.09
2.504,-0.085
2.508,-0.09
2.512,-0.125
2.516,-0.125
2.52,-0.125
2.524,-0.11
2.528,-0.14
2.532,-0.2
2.536,-0.245
2.54,-0.26
2.544,-0.275
2.548,-0.305
2.552,-0.305
2.556,-0.315
2.56,-0.295
2.564,-0.31
2.568,-0.315
2.572,-0.355
2.576,-0.395
2.58,-0.415
2.584,-0.425
2.588,-0.435
2.592,-0.445
2.596,-0.465
2.6,-0.435
2.604,-0.43
2.608,-0.425
2.612,-0.43
2.616,-0.435
2.62,-0.4
2.624,-0.34
2.628,-0.33
2.632,-0.275
2.636,-0.25
2.64,-0.215
2.644,-0.145
2.648,-0.075
2.652,-0.025
2.656,0.0
2.66,0.015
2.664,0.005
2.668,0.0
2.672,0.0
2.676,0.05
2.68,0.07
2.684,0.095
2.688,0.125
2.692,0.105
2.696,0.11
2.7,0.1
2.704,0.075
2.708,0.075
2.712,0.09
2.716,0.1
2.72,0.105
2.724,0.095
2.728,0.095
2.732,0.105
2.736,0.11
2.74,0.105
2.744,0.11
2.748,0.105
2.752,0.085
2.756,0.06
2.76,0.075
2.764,0.065
2.768,0.065
2.772,0.07
2.776,0.09
2.78,0.1
2.784,0.095
2.788,0.115
2.792,0.09
2.796,0.055
2.8,0.035
2.804,0.05
2.808,0.045
2.812,0.05
2.816,0.055
2.82,0.05
2.824,0.045
2.828,0.05
2.832,0.05
2.836,0.045
2.84,0.035
2.844,0.05
2.848,0.015
2.852,0.015
2.856,0.04
2.86,0.09
2.864,0.15
2.868,0.17
2.872,0.235
2.876,0.435
2.88,0.775
2.884,1.125
2.888,1.325
2.892,1.335
2.896,0.94
2.9,0.0
2.904,-0.92
2.908,-1.36
2.912,-1.43
2.916,-1.325
2.92,-1.145
2.924,-0.845
2.928,-0.555
2.932,-0.325
2.936,-0.19
2.94,-0.115
2.944,-0.04
2.948,-0.025
2.952,-0.01
2.956,-0.005
2.96,0.0
2.964,-0.005
2.968,0.01
2.972,-0.02
2.976,-0.01
2.98,-0.025
2.984,-0.02
2.988,-0.025
2.992,-0.02
2.996,-0.02
3.0,-0.025
3.004,-0.03
3.008,-0.03
3.012,-0.045
3.016,-0.05
3.02,-0.085
3.024,-0.075
3.028,-0.06
3.032,-0.09
3.036,-0.1
3.04,-0.1
3.044,-0.1
3.048,-0.115
3.052,-0.105
3.056,-0.115
3.06,-0.16
3.064,-0.19
3.068,-0.2
3.072,-0.25
3.076,-0.245
3.08,-0.28
3.084,-0.265
3.088,-0.285
3.092,-0.305
3.096,-0.35
3.1,-0.385
3.104,-0.405
3.108,-0.425
3.112,-0.475
3.116,-0.47
3.12,-0.475
3.124,-0.485
3.128,-0.48
3.132,-0.51
3.136,-0.515
3.14,-0.495
3.144,-0.505
3.148,-0.5
3.152,-0.455
3.156,-0.425
3.16,-0.385
3.164,-0.33
3.168,-0.3
3.172,-0.24
3.176,-0.2
3.18,-0.115
3.184,-0.08
3.188,-0.075
3.192,-0.045
3.196,-0.035
3.2,-0.01
3.204,-0.02
3.208,0.01
3.212,0.025
3.216,0.03
3.22,0.015
3.224,-0.005
3.228,-0.005
3.232,-0.04
3.236,-0.06
3.24,-0.095
3.244,-0.08
3.248,-0.09
3.252,-0.1
3.256,-0.085
3.26,-0.105
3.264,-0.115
3.268,-0.12
3.272,-0.12
3.276,-0.15
3.28,-0.16
3.284,-0.17
3.288,-0.18
3.292,-0.17
3.296,-0.185
3.3,-0.19
3.304,-0.18
3.308,-0.185
3.312,-0.215
3.316,-0.215
3.32,-0.22
3.324,-0.235
3.328,-0.225
3.332,-0.235
3.336,-0.275
3.34,-0.26
3.344,-0.24
3.348,-0.25
3.352,-0.24
3.356,-0.225
3.36,-0.265
3.364,-0.275
3.368,-0.275
3.372,-0.23
3.376,-0.195
3.38,-0.15
3.384,-0.07
3.388,-0.02
3.392,0.015
3.396,0.025
3.4,0.025
3.404,0.025
3.408,-0.02
3.412,-0.075
3.416,-0.12
3.42,-0.14
3.424,-0.17
3.428,-0.23
3.432,-0.275
3.436,-0.335
3.44,-0.375
3.444,-0.38
3.448,-0.405
3.452,-0.43
3.456,-0.445
3.46,-0.425
3.464,-0.435
3.468,-0.39
3.472,-0.29
3.476,-0.225
3.48,-0.095
3.484,0.17
3.488,0.48
3.492,0.685
3.496,0.78
3.5,0.86
3.504,0.59
3.508,-0.26
3.512,-1.205
3.516,-1.72
3.52,-1.885
3.524,-1.785
3.528,-1.575
3.532,-1.295
3.536,-1.02
3.54,-0.825
3.544,-0.705
3.548,-0.645
3.552,-0.61
3.556,-0.59
3.56,-0.555
3.564,-0.545
3.568,-0.54
3.572,-0.545
3.576,-0.54
3.58,-0.54
3.584,-0.555
3.588,-0.55
3.592,-0.57
3.596,-0.58
3.6,-0.58
3.604,-0.6
3.608,-0.585
3.612,-0.58
3.616,-0.6
3.62,-0.62
3.624,-0.65
3.628,-0.64
3.632,-0.665
3.636,-0.67
3.64,-0.665
3.644,-0.695
3.648,-0.715
3.652,-0.7
3.656,-0.705
3.66,-0.7
3.664,-0.73
3.668,-0.725
3.672,-0.755
3.676,-0.79
3.68,-0.83
3.684,-0.835
3.688,-0.88
3.692,-0.89
3.696,-0.89
3.7,-0.91
3.704,-0.915
3.708,-0.945
3.712,-0.99
3.716,-1.04
3.72,-1.055
3.724,-1.055
3.728,-1.065
3.732,-1.085
3.736,-1.11
3.74,-1.125
3.744,-1.115
3.748,-1.145
3.752,-1.16
3.756,-1.17
3.76,-1.19
3.764,-1.17
3.768,-1.185
3.772,-1.18
3.776,-1.155
3.78,-1.145
3.784,-1.09
3.788,-1.035
3.792,-0.95
3.796,-0.895
3.8,-0.845
3.804,-0.825
3.808,-0.77
3.812,-0.725
3.816,-0.66
3.82,-0.635
3.824,-0.57
3.828,-0.52
3.832,-0.47
3.836,-0.435
3.84,-0.41
3.844,-0.42
3.848,-0.43
3.852,-0.44
3.856,-0.43
3.86,-0.415
3.864,-0.415
3.868,-0.445
3.872,-0.405
3.876,-0.42
3.88,-0.42
3.884,-0.425
3.888,-0.415
3.892,-0.435
3.896,-0.45
3.9,-0.445
3.904,-0.46
3.908,-0.43
3.912,-0.47
3.916,-0.445
3.92,-0.465
3.924,-0.46
3.928,-0.46
3.932,-0.465
3.936,-0.485
3.94,-0.495
3.944,-0.5
3.948,-0.52
3.952,-0.525
3.956,-0.525
3.96,-0.52
3.964,-0.52
3.968,-0.48
3.972,-0.5
3.976,-0.525
3.98,-0.53
3.984,-0.54
3.988,-0.545
3.992,-0.555
3.996,-0.555
4.0,-0.555
4.004,-0.545
4.008,-0.54
4.012,-0.54
4.016,-0.53
4.02,-0.54
4.024,-0.56
4.028,-0.58
4.032,-0.59
4.036,-0.595
4.04,-0.595
4.044,-0.57
4.048,-0.57
4.052,-0.575
4.056,-0.555
4.06,-0.57
4.064,-0.575
4.068,-0.595
4.072,-0.605
4.076,-0.62
4.08,-0.62
4.084,-0.62
4.088,-0.61
4.092,-0.6
4.096,-0.585
4.1,-0.585
4.104,-0.595
4.108,-0.605
4.112,-0.595
4.116,-0.59
4.12,-0.635
4.124,-0.605
4.128,-0.615
4.132,-0.615
4.136,-0.62
4.14,-0.58
4.144,-0.57
4.148,-0.605
4.152,-0.6
4.156,-0.615
4.16,-0.635
4.164,-0.64
4.168,-0.65
4.172,-0.64
4.176,-0.625
4.18,-0.625
4.184,-0.595
4.188,-0.61
4.192,-0.585
4.196,-0.61
4.2,-0.62
4.204,-0.65
4.208,-0.64
4.212,-0.63
4.216,-0.64
4.22,-0.655
4.224,-0.63
4.228,-0.62
4.232,-0.625
4.236,-0.615
4.24,-0.635
4.244,-0.63
4.248,-0.635
4.252,-0.66
4.256,-0.65
4.26,-0.665
4.264,-0.655
4.268,-0.645
4.272,-0.635
4.276,-0.615
4.28,-0.61
4.284,-0.64
4.288,-0.625
4.292,-0.65
4.296,-0.66
4.3,-0.665
4.304,-0.66
4.308,-0.65
4.312,-0.61
4.316,-0.56
4.32,-0.545
4.324,-0.5
4.328,-0.51
4.332,-0.51
4.336,-0.52
4.34,-0.505
4.344,-0.51
4.348,-0.495
4.352,-0.49
4.356,-0.49
4.36,-0.49
4.364,-0.51
4.368,-0.53
4.372,-0.57
4.376,-0.58
4.38,-0.63
4.384,-0.65
4.388,-0.675
4.392,-0.695
4.396,-0.725
4.4,-0.72
4.404,-0.705
4.408,-0.7
4.412,-0.7
4.416,-0.69
4.42,-0.665
4.424,-0.635
4.428,-0.58
4.432,-0.475
4.436,-0.195
4.44,0.16
4.444,0.44
4.448,0.595
4.452,0.72
4.456,0.62
4.46,-0.1
4.464,-1.05
4.468,-1.74
4.472,-2.025
4.476,-2.065
4.48,-1.895
4.484,-1.63
4.488,-1.325
4.492,-1.07
4.496,-0.94
4.5,-0.87
4.504,-0.795
4.508,-0.77
4.512,-0.795
4.516,-0.8
4.52,-0.8
4.524,-0.79
4.528,-0.79
4.532,-0.76
4.536,-0.745
4.54,-0.735
4.544,-0.75
4.548,-0.77
4.552,-0.765
4.556,-0.785
4.56,-0.805
4.564,-0.8
4.568,-0.79
4.572,-0.815
4.576,-0.81
4.58,-0.785
4.584,-0.79
4.588,-0.8
4.592,-0.79
4.596,-0.815
4.6,-0.815
4.604,-0.835
4.608,-0.86
4.612,-0.845
4.616,-0.875
4.62,-0.865
4.624,-0.875
4.628,-0.86
4.632,-0.845
4.636,-0.89
4.64,-0.925
4.644,-0.97
4.648,-0.975
4.652,-0.995
4.656,-1.005
4.66,-1.04
4.664,-1.06
4.668,-1.035
4.672,-1.06
4.676,-1.07
4.68,-1.085
4.684,-1.105
4.688,-1.135
4.692,-1.15
4.696,-1.155
4.7,-1.19
4.704,-1.19
4.708,-1.215
4.712,-1.21
4.716,-1.21
4.72,-1.225
4.724,-1.23
4.728,-1.24
4.732,-1.235
4.736,-1.215
4.74,-1.185
4.744,-1.165
4.748,-1.125
4.752,-1.06
4.756,-1.01
4.76,-0.965
4.764,-0.93
4.768,-0.855
4.772,-0.795
4.776,-0.73
4.78,-0.665
4.784,-0.64
4.788,-0.64
4.792,-0.59
4.796,-0.555
4.8,-0.54
4.804,-0.535
4.808,-0.52
4.812,-0.505
4.816,-0.54
4.82,-0.55
4.824,-0.56
4.828,-0.58
4.832,-0.575
4.836,-0.575
4.84,-0.545
4.844,-0.53
4.848,-0.55
4.852,-0.545
4.856,-0.54
4.86,-0.56
4.864,-0.565
4.868,-0.58
4.872,-0.58
4.876,-0.565
4.88,-0.565
4.884,-0.575
4.888,-0.57
4.892,-0.585
4.896,-0.58
4.9,-0.57
4.904,-0.59
4.908,-0.615
4.912,-0.625
4.916,-0.62
4.92,-0.62
4.924,-0.605
4.928,-0.59
4.932,-0.58
4.936,-0.58
4.94,-0.59
4.944,-0.595
4.948,-0.61
4.952,-0.62
4.956,-0.61
4.96,-0.6
4.964,-0.605
4.968,-0.6
4.972,-0.58
4.976,-0.575
4.98,-0.55
4.984,-0.545
4.988,-0.575
4.992,-0.605
4.996,-0.545
5.0,-0.33
5.004,0.055
5.008,0.425
5.012,0.71
5.016,0.565
5.02,-0.325
5.024,-1.26
5.028,-1.8
5.032,-2.02
5.036,-2.015
5.04,-1.925
5.044,-1.765
5.048,-1.495
5.052,-1.14
5.056,-0.815
5.06,-0.63
5.064,-0.545
5.068,-0.535
5.072,-0.505
5.076,-0.505
5.08,-0.52
5.084,-0.51
5.088,-0.495
5.092,-0.525
5.096,-0.52
5.1,-0.49
5.104,-0.5
5.108,-0.52
5.112,-0.515
5.116,-0.52
5.12,-0.545
5.124,-0.57
5.128,-0.595
5.132,-0.61
5.136,-0.6
5.14,-0.615
5.144,-0.605
5.148,-0.615
5.152,-0.625
5.156,-0.615
5.16,-0.64
5.164,-0.655
5.168,-0.66
5.172,-0.68
5.176,-0.68
5.18,-0.71
5.184,-0.73
5.188,-0.735
5.192,-0.73
5.196,-0.75
5.2,-0.77
5.204,-0.77
5.208,-0.8
5.212,-0.825
5.216,-0.86
5.22,-0.91
5.224,-0.925
5.228,-0.925
5.232,-0.915
5.236,-0.91
5.24,-0.905
5.244,-0.925
5.248,-0.94
5.252,-0.965
5.256,-0.98
5.26,-0.96
5.264,-0.96
5.268,-0.935
5.272,-0.905
5.276,-0.86
5.28,-0.825
5.284,-0.78
5.288,-0.74
5.292,-0.675
5.296,-0.635
5.3,-0.59
5.304,-0.525
5.308,-0.505
5.312,-0.465
5.316,-0.445
5.32,-0.4
5.324,-0.375
5.328,-0.345
5.332,-0.355
5.336,-0.35
5.34,-0.38
5.344,-0.38
5.348,-0.405
5.352,-0.425
5.356,-0.435
5.36,-0.44
5.364,-0.44
5.368,-0.44
5.372,-0.445
5.376,-0.43
5.38,-0.44
5.384,-0.485
5.388,-0.5
5.392,-0.485
5.396,-0.5
5.4,-0.505
5.404,-0.49
5.408,-0.49
5.412,-0.48
5.416,-0.485
5.42,-0.48
5.424,-0.49
5.428,-0.5
5.432,-0.505
5.436,-0.505
5.44,-0.53
5.444,-0.52
5.448,-0.55
5.452,-0.52
5.456,-0.485
5.46,-0.495
5.464,-0.51
5.468,-0.49
5.472,-0.51
5.476,-0.505
5.48,-0.53
5.484,-0.53
5.488,-0.52
5.492,-0.52
5.496,-0.485
5.5,-0.455
5.504,-0.425
5.508,-0.38
5.512,-0.3
5.516,-0.24
5.52,-0.2
5.524,-0.18
5.528,-0.16
5.532,-0.17
5.536,-0.21
5.54,-0.215
5.544,-0.235
5.548,-0.285
5.552,-0.315
5.556,-0.365
5.56,-0.435
5.564,-0.495
5.568,-0.535
5.572,-0.56
5.576,-0.58
5.58,-0.56
5.584,-0.57
5.588,-0.56
5.592,-0.535
5.596,-0.535
5.6,-0.53
5.604,-0.55
5.608,-0.53
5.612,-0.48
5.616,-0.445
5.62,-0.365
5.624,-0.125
5.628,0.225
5.632,0.535
5.636,0.72
5.64,0.845
5.644,0.705
5.648,-0.025
5.652,-1.01
5.656,-1.665
5.66,-1.94
5.664,-1.94
5.668,-1.725
5.672,-1.415
5.676,-1.07
5.68,-0.825
5.684,-0.72
5.688,-0.655
5.692,-0.64
5.696,-0.64
5.7,-0.64
5.704,-0.62
5.708,-0.605
5.712,-0.61
5.716,-0.59
5.72,-0.57
5.724,-0.56
5.728,-0.56
5.732,-0.57
5.736,-0.56
5.74,-0.56
5.744,-0.58
5.748,-0.61
5.752,-0.59
5.756,-0.585
5.76,-0.585
5.764,-0.585
5.768,-0.56
5.772,-0.585
5.776,-0.61
5.78,-0.62
5.784,-0.635
5.788,-0.665
5.792,-0.685
5.796,-0.665
5.8,-0.665
5.804,-0.685
5.808,-0.67
5.812,-0.665
5.816,-0.685
5.82,-0.705
5.824,-0.725
5.828,-0.755
5.832,-0.795
5.836,-0.795
5.84,-0.825
5.844,-0.84
5.848,-0.865
5.852,-0.845
5.856,-0.85
5.86,-0.885
5.864,-0.885
5.868,-0.92
5.872,-0.975
5.876,-0.99
5.88,-1.0
5.884,-1.0
5.888,-1.03
5.892,-1.02
5.896,-1.02
5.9,-1.03
5.904,-0.99
5.908,-1.005
5.912,-1.005
5.916,-1.005
5.92,-0.99
5.924,-0.955
5.928,-0.9
5.932,-0.85
5.936,-0.8
5.94,-0.715
5.944,-0.67
5.948,-0.58
5.952,-0.54
5.956,-0.5
5.96,-0.47
5.964,-0.435
5.968,-0.41
5.972,-0.385
5.976,-0.355
5.98,-0.325
5.984,-0.3
5.988,-0.265
5.992,-0.265
5.996,-0.26
6.0,-0.27
6.004,-0.28
6.008,-0.28
6.012,-0.295
6.016,-0.29
6.02,-0.28
6.024,-0.295
6.028,-0.275
6.032,-0.27
6.036,-0.25
6.04,-0.265
6.044,-0.275
6.048,-0.3
6.052,-0.305
6.056,-0.305
6.06,-0.29
6.064,-0.31
6.068,-0.275
6.072,-0.28
6.076,-0.285
6.08,-0.305
6.084,-0.295
6.088,-0.335
6.092,-0.345
6.096,-0.305
6.1,-0.33
6.104,-0.33
6.108,-0.31
6.112,-0.315
6.116,-0.305
6.12,-0.315
6.124,-0.315
6.128,-0.32
6.132,-0.325
6.136,-0.33
6.14,-0.34
6.144,-0.33
6.148,-0.335
6.152,-0.34
6.156,-0.34
6.16,-0.305
6.164,-0.295
6.168,-0.305
6.172,-0.305
6.176,-0.31
6.18,-0.345
6.184,-0.335
6.188,-0.34
6.192,-0.33
6.196,-0.35
6.2,-0.335
6.204,-0.32
6.208,-0.305
6.212,-0.3
6.216,-0.315
6.22,-0.32
6.224,-0.33
6.228,-0.33
6.232,-0.34
6.236,-0.315
6.24,-0.31
6.244,-0.325
6.248,-0.31
6.252,-0.32
6.256,-0.305
6.26,-0.305
6.264,-0.31
6.268,-0.32
6.272,-0.33
6.276,-0.3
6.28,-0.32
6.284,-0.33
6.288,-0.32
6.292,-0.33
6.296,-0.295
6.3,-0.28
6.304,-0.29
6.308,-0.295
6.312,-0.31
6.316,-0.32
6.32,-0.32
6.324,-0.315
6.328,-0.325
6.332,-0.32
6.336,-0.32
6.34,-0.305
6.344,-0.29
6.348,-0.295
6.352,-0.29
6.356,-0.31
6.36,-0.31
6.364,-0.31
6.368,-0.32
6.372,-0.305
6.376,-0.295
6.38,-0.28
6.384,-0.275
6.388,-0.25
6.392,-0.265
6.396,-0.265
6.4,-0.26
6.404,-0.265
6.408,-0.29
6.412,-0.27
6.416,-0.25
6.42,-0.255
6.424,-0.24
6.428,-0.235
6.432,-0.21
6.436,-0.2
6.44,-0.16
6.444,-0.155
6.448,-0.135
6.452,-0.13
6.456,-0.135
6.46,-0.125
6.464,-0.085
6.468,-0.055
6.472,0.0
6.476,0.03
6.48,0.025
6.484,0.04
6.488,0.03
6.492,-0.035
6.496,-0.08
6.5,-0.11
6.504,-0.14
6.508,-0.185
6.512,-0.215
6.516,-0.2
6.52,-0.205
6.524,-0.225
6.528,-0.225
6.532,-0.245
6.536,-0.23
6.54,-0.23
6.544,-0.24
6.548,-0.205
6.552,-0.13
6.556,-0.07
6.56,0.115
6.564,0.44
6.568,0.775
6.572,0.98
6.576,1.165
6.58,1.265
6.584,0.99
6.588,0.12
6.592,-0.79
6.596,-1.365
6.6,-1.535
6.604,-1.455
6.608,-1.26
6.612,-0.98
6.616,-0.715
6.62,-0.5
6.624,-0.4
6.628,-0.35
6.632,-0.295
6.636,-0.28
6.64,-0.275
6.644,-0.245
6.648,-0.24
6.652,-0.225
6.656,-0.24
6.66,-0.22
6.664,-0.195
6.668,-0.22
6.672,-0.245
6.676,-0.245
6.68,-0.26
6.684,-0.26
6.688,-0.26
6.692,-0.24
6.696,-0.225
6.7,-0.2
6.704,-0.22
6.708,-0.22
6.712,-0.23
6.716,-0.25
6.72,-0.275
6.724,-0.285
6.728,-0.28
6.732,-0.27
6.736,-0.26
6.74,-0.25
6.744,-0.255
6.748,-0.27
6.752,-0.275
6.756,-0.29
6.76,-0.335
6.764,-0.35
6.768,-0.345
6.772,-0.36
6.776,-0.36
6.78,-0.36
6.784,-0.355
6.788,-0.365
6.792,-0.36
6.796,-0.405
6.8,-0.44
6.804,-0.49
6.808,-0.48
6.812,-0.5
6.816,-0.51
6.82,-0.525
6.824,-0.505
6.828,-0.505
6.832,-0.515
6.836,-0.505
6.84,-0.51
6.844,-0.54
6.848,-0.545
6.852,-0.515
6.856,-0.54
6.86,-0.55
6.864,-0.555
6.868,-0.53
6.872,-0.5
6.876,-0.46
6.88,-0.415
6.884,-0.375
6.888,-0.36
6.892,-0.33
6.896,-0.285
6.9,-0.245
6.904,-0.21
6.908,-0.17
6.912,-0.11
6.916,-0.05
6.92,0.005
6.924,0.035
6.928,0.06
6.932,0.085
6.936,0.08
6.94,0.075
6.944,0.1
6.948,0.11
6.952,0.12
6.956,0.135
6.96,0.145
6.964,0.155
6.968,0.135
6.972,0.145
6.976,0.125
6.98,0.12
6.984,0.095
6.988,0.11
6.992,0.105
6.996,0.105
7.0,0.1
7.004,0.08
7.008,0.085
7.012,0.125
7.016,0.13
7.02,0.095
7.024,0.105
7.028,0.1
7.032,0.08
7.036,0.09
7.04,0.09
7.044,0.1
7.048,0.125
7.052,0.1
7.056,0.095
7.06,0.1
7.064,0.09
7.068,0.055
7.072,0.065
7.076,0.055
7.08,0.05
7.084,0.06
7.088,0.055
7.092,0.075
7.096,0.075
7.1,0.095
7.104,0.1
7.108,0.09
7.112,0.08
7.116,0.045
7.12,0.05
7.124,0.065
7.128,0.085
7.132,0.07
7.136,0.11
7.14,0.11
7.144,0.11
7.148,0.105
7.152,0.1
7.156,0.085
7.16,0.08
7.164,0.075
7.168,0.075
7.172,0.08
7.176,0.075
7.18,0.08
7.184,0.11
7.188,0.105
7.192,0.09
7.196,0.11
7.2,0.1
7.204,0.07
7.208,0.07
7.212,0.095
7.216,0.08
7.22,0.095
7.224,0.095
7.228,0.09
7.232,0.08
7.236,0.09
7.24,0.12
7.244,0.1
7.248,0.1
7.252,0.095
7.256,0.06
7.26,0.07
7.264,0.065
7.268,0.095
7.272,0.11
7.276,0.11
7.28,0.115
7.284,0.125
7.288,0.145
7.292,0.165
7.296,0.175
7.3,0.18
7.304,0.19
7.308,0.225
7.312,0.235
7.316,0.275
7.32,0.3
7.324,0.27
7.328,0.255
7.332,0.28
7.336,0.245
7.34,0.175
7.344,0.155
7.348,0.12
7.352,0.105
7.356,0.115
7.36,0.105
7.364,0.065
7.368,0.065
7.372,0.035
7.376,0.04
7.38,0.03
7.384,0.045
7.388,0.05
7.392,0.075
7.396,0.12
7.4,0.19
7.404,0.32
7.408,0.555
7.412,0.91
7.416,1.27
7.42,1.475
7.424,1.615
7.428,1.43
7.432,0.665
7.436,-0.32
7.44,-0.985
7.444,-1.235
7.448,-1.175
7.452,-1.03
7.456,-0.87
7.46,-0.615
7.464,-0.4
7.468,-0.25
7.472,-0.155
7.476,-0.13
7.48,-0.06
7.484,-0.035
7.488,-0.01
7.492,0.005
7.496,0.025
7.5,0.02
7.504,0.015
7.508,0.02
7.512,0.01
7.516,0.02
7.52,0.005
7.524,-0.005
7.528,-0.015
7.532,0.01
7.536,0.045
7.54,0.03
7.544,0.02
7.548,0.005
7.552,-0.015
7.556,-0.04
7.56,-0.06
7.564,-0.045
7.568,-0.08
7.572,-0.075
7.576,-0.085
7.58,-0.07
7.584,-0.08
7.588,-0.11
7.592,-0.08
7.596,-0.115
7.6,-0.145
7.604,-0.19
7.608,-0.175
7.612,-0.19
7.616,-0.21
7.62,-0.24
7.624,-0.26
7.628,-0.295
7.632,-0.31
7.636,-0.345
7.64,-0.36
7.644,-0.42
7.648,-0.43
7.652,-0.45
7.656,-0.495
7.66,-0.52
7.664,-0.54
7.668,-0.535
7.672,-0.515
7.676,-0.555
7.68,-0.575
7.684,-0.59
7.688,-0.615
7.692,-0.625
7.696,-0.62
7.7,-0.64
7.704,-0.62
7.708,-0.57
7.712,-0.53
7.716,-0.475
7.72,-0.435
7.724,-0.415
7.728,-0.365
7.732,-0.31
7.736,-0.265
7.74,-0.235
7.744,-0.195
7.748,-0.15
7.752,-0.085
7.756,-0.05
7.76,-0.005
7.764,0.01
7.768,0.02
7.772,0.035
7.776,0.08
7.78,0.09
7.784,0.08
7.788,0.09
7.792,0.085
7.796,0.11
7.8,0.155
7.804,0.165
7.808,0.185
7.812,0.165
7.816,0.155
7.82,0.155
7.824,0.135
7.828,0.15
7.832,0.15
7.836,0.13
7.84,0.16
7.844,0.17
7.848,0.155
7.852,0.15
7.856,0.135
7.86,0.145
7.864,0.125
7.868,0.105
7.872,0.125
7.876,0.1
7.88,0.1
7.884,0.095
7.888,0.115
7.892,0.13
7.896,0.11
7.9,0.1
7.904,0.075
7.908,0.07
7.912,0.07
7.916,0.06
7.92,0.055
7.924,0.085
7.928,0.07
7.932,0.065
7.936,0.095
7.94,0.085
7.944,0.06
7.948,0.055
7.952,0.035
7.956,0.015
7.96,0.03
7.964,0.04
7.968,0.035
7.972,0.035
7.976,0.05
7.98,0.05
7.984,0.055
7.988,0.045
7.992,0.03
7.996,0.03
8.0,0.03
8.004,0.04
8.008,0.04
8.012,0.02
8.016,0.035
8.02,0.035
8.024,0.025
8.028,0.01
8.032,0.02
8.036,0.01
8.04,0.015
8.044,0.01
8.048,-0.015
8.052,-0.005
8.056,0.005
8.06,-0.01
8.064,0.015
8.068,0.015
8.072,0.015
8.076,0.005
8.08,0.015
8.084,-0.02
8.088,-0.015
8.092,0.0
8.096,0.0
8.1,-0.01
8.104,0.01
8.108,0.03
8.112,0.03
8.116,0.015
8.12,0.035
8.124,0.035
8.128,0.075
8.132,0.08
8.136,0.09
8.14,0.085
8.144,0.14
8.148,0.175
8.152,0.175
8.156,0.175
8.16,0.16
8.164,0.155
8.168,0.165
8.172,0.14
8.176,0.105
8.18,0.09
8.184,0.055
8.188,0.015
8.192,0.02
8.196,0.025
8.2,0.02
8.204,-0.02
8.208,-0.045
8.212,-0.065
8.216,-0.085
8.22,-0.065
8.224,-0.05
8.228,-0.055
8.232,-0.03
8.236,0.06
8.24,0.155
8.244,0.33
8.248,0.625
8.252,0.94
8.256,1.135
8.26,1.245
8.264,1.245
8.268,0.755
8.272,-0.195
8.276,-1.01
8.28,-1.395
8.284,-1.44
8.288,-1.315
8.292,-1.13
8.296,-0.85
8.3,-0.57
8.304,-0.36
8.308,-0.275
8.312,-0.215
8.316,-0.16
8.32,-0.12
8.324,-0.11
8.328,-0.105
8.332,-0.085
8.336,-0.09
8.34,-0.08
8.344,-0.065
8.348,-0.07
8.352,-0.1
8.356,-0.125
8.36,-0.125
8.364,-0.125
8.368,-0.13
8.372,-0.105
8.376,-0.115
8.38,-0.1
8.384,-0.11
8.388,-0.13
8.392,-0.135
8.396,-0.155
8.4,-0.185
8.404,-0.185
8.408,-0.18
8.412,-0.195
8.416,-0.185
8.42,-0.2
8.424,-0.21
8.428,-0.21
8.432,-0.26
8.436,-0.27
8.44,-0.29
8.444,-0.31
8.448,-0.32
8.452,-0.35
8.456,-0.385
8.46,-0.385
8.464,-0.405
8.468,-0.435
8.472,-0.46
8.476,-0.5
8.48,-0.535
8.484,-0.555
8.488,-0.585
8.492,-0.6
8.496,-0.63
8.5,-0.65
8.504,-0.68
8.508,-0.685
8.512,-0.73
8.516,-0.755
8.52,-0.76
8.524,-0.785
8.528,-0.82
8.532,-0.815
8.536,-0.82
8.54,-0.815
8.544,-0.79
8.548,-0.79
8.552,-0.73
8.556,-0.7
8.56,-0.67
8.564,-0.61
8.568,-0.595
8.572,-0.54
8.576,-0.475
8.58,-0.415
8.584,-0.36
8.588,-0.335
8.592,-0.275
8.596,-0.205
8.6,-0.155
8.604,-0.125
8.608,-0.095
8.612,-0.085
8.616,-0.055
8.62,-0.065
8.624,-0.055
8.628,-0.02
8.632,0.0
8.636,0.0
8.64,0.01
8.644,0.025
8.648,0.04
8.652,0.005
8.656,0.005
8.66,0.0
8.664,-0.01
8.668,-0.005
8.672,-0.005
8.676,0.0
8.68,0.005
8.684,0.035
8.688,0.035
8.692,0.015
8.696,0.01
8.7,0.0
8.704,-0.005
8.708,-0.01
8.712,-0.035
8.716,-0.02
8.72,-0.025
8.724,-0.04
8.728,-0.015
8.732,-0.02
8.736,-0.025
8.74,-0.025
8.744,-0.04
8.748,-0.045
8.752,-0.06
8.756,-0.07
8.76,-0.06
8.764,-0.065
8.768,-0.08
8.772,-0.04
8.776,-0.03
8.78,-0.045
8.784,-0.04
8.788,-0.05
8.792,-0.055
8.796,-0.075
8.8,-0.08
8.804,-0.085
8.808,-0.09
8.812,-0.065
8.816,-0.05
8.82,-0.05
8.824,-0.04
8.828,-0.045
8.832,-0.075
8.836,-0.09
8.84,-0.115
8.844,-0.1
8.848,-0.095
8.852,-0.085
8.856,-0.09
8.86,-0.085
8.864,-0.07
8.868,-0.06
8.872,-0.065
8.876,-0.075
8.88,-0.085
8.884,-0.105
8.888,-0.09
8.892,-0.095
8.896,-0.085
8.9,-0.09
8.904,-0.075
8.908,-0.075
8.912,-0.075
8.916,-0.07
8.92,-0.085
8.924,-0.085
8.928,-0.085
8.932,-0.1
8.936,-0.105
8.94,-0.11
8.944,-0.09
8.948,-0.075
8.952,-0.08
8.956,-0.05
8.96,-0.05
8.964,-0.04
8.968,-0.025
8.972,-0.02
8.976,0.025
8.98,0.025
8.984,0.035
8.988,0.055
8.992,0.085
8.996,0.085
9.0,0.085
9.004,0.03
9.008,0.035
9.012,0.065
9.016,0.02
9.02,0.0
9.024,-0.03
9.028,-0.06
9.032,-0.095
9.036,-0.1
9.04,-0.1
9.044,-0.12
9.048,-0.145
9.052,-0.16
9.056,-0.185
9.06,-0.19
9.064,-0.19
9.068,-0.19
9.072,-0.16
9.076,-0.1
9.08,-0.045
9.084,0.115
9.088,0.39
9.092,0.73
9.096,0.99
9.1,1.11
9.104,1.23
9.108,1.065
9.112,0.34
9.116,-0.63
9.12,-1.3
9.124,-1.55
9.128,-1.505
9.132,-1.32
9.136,-1.06
9.14,-0.775
9.144,-0.555
9.148,-0.43
9.152,-0.35
9.156,-0.31
9.16,-0.27
9.164,-0.27
9.168,-0.25
9.172,-0.26
9.176,-0.235
9.18,-0.235
9.184,-0.245
9.188,-0.26
9.192,-0.26
9.196,-0.275
9.2,-0.26
9.204,-0.295
9.208,-0.28
9.212,-0.29
9.216,-0.28
9.22,-0.29
9.224,-0.285
9.228,-0.285
9.232,-0.305
9.236,-0.305
9.24,-0.32
9.244,-0.355
9.248,-0.355
9.252,-0.36
9.256,-0.37
9.26,-0.38
9.264,-0.38
9.268,-0.375
9.272,-0.37
9.276,-0.38
9.28,-0.4
9.284,-0.445
9.288,-0.45
9.292,-0.49
9.296,-0.515
9.3,-0.545
9.304,-0.56
9.308,-0.57
9.312,-0.57
9.316,-0.605
9.32,-0.63
9.324,-0.665
9.328,-0.715
9.332,-0.745
9.336,-0.8
9.34,-0.81
9.344,-0.83
9.348,-0.845
9.352,-0.85
9.356,-0.89
9.36,-0.91
9.364,-0.92
9.368,-0.92
9.372,-0.96
9.376,-0.97
9.38,-0.975
9.384,-0.99
9.388,-0.995
9.392,-0.945
9.396,-0.89
9.4,-0.84
9.404,-0.815
9.408,-0.775
9.412,-0.715
9.416,-0.685
9.42,-0.64
9.424,-0.59
9.428,-0.5
9.432,-0.44
9.436,-0.38
9.44,-0.31
9.444,-0.265
9.448,-0.23
9.452,-0.195
9.456,-0.205
9.46,-0.22
9.464,-0.18
9.468,-0.18
9.472,-0.175
9.476,-0.16
9.48,-0.145
9.484,-0.115
9.488,-0.11
9.492,-0.125
9.496,-0.135
9.5,-0.15
9.504,-0.16
9.508,-0.16
9.512,-0.16
9.516,-0.14
9.52,-0.17
9.524,-0.175
9.528,-0.145
9.532,-0.145
9.536,-0.15
9.54,-0.155
9.544,-0.16
9.548,-0.16
9.552,-0.18
9.556,-0.205
9.56,-0.19
9.564,-0.19
9.568,-0.19
9.572,-0.175
9.576,-0.165
9.58,-0.175
9.584,-0.175
9.588,-0.2
9.592,-0.185
9.596,-0.2
9.6,-0.2
9.604,-0.2
9.608,-0.205
9.612,-0.21
9.616,-0.205
9.62,-0.21
9.624,-0.2
9.628,-0.21
9.632,-0.225
9.636,-0.225
9.64,-0.25
9.644,-0.255
9.648,-0.215
9.652,-0.22
9.656,-0.23
9.66,-0.2
9.664,-0.22
9.668,-0.21
9.672,-0.21
9.676,-0.21
9.68,-0.245
9.684,-0.23
9.688,-0.225
9.692,-0.24
9.696,-0.22
9.7,-0.22
9.704,-0.2
9.708,-0.215
9.712,-0.22
9.716,-0.23
9.72,-0.215
9.724,-0.22
9.728,-0.25
9.732,-0.255
9.736,-0.24
9.74,-0.23
9.744,-0.22
9.748,-0.21
9.752,-0.21
9.756,-0.23
9.76,-0.23
9.764,-0.23
9.768,-0.24
9.772,-0.245
9.776,-0.22
9.78,-0.235
9.784,-0.22
9.788,-0.2
9.792,-0.17
9.796,-0.135
9.8,-0.085
9.804,-0.08
9.808,-0.1
9.812,-0.07
9.816,-0.09
9.82,-0.075
9.824,-0.06
9.828,-0.08
9.832,-0.08
9.836,-0.04
9.84,-0.035
9.844,-0.07
9.848,-0.07
9.852,-0.11
9.856,-0.16
9.86,-0.18
9.864,-0.22
9.868,-0.255
9.872,-0.26
9.876,-0.27
9.88,-0.28
9.884,-0.255
9.888,-0.25
9.892,-0.23
9.896,-0.23
9.9,-0.21
9.904,-0.155
9.908,-0.09
9.912,0.065
9.916,0.38
9.92,0.73
9.924,0.95
9.928,1.115
9.932,1.205
9.936,0.84
9.94,-0.095
9.944,-0.97
9.948,-1.5
9.952,-1.595
9.956,-1.52
9.96,-1.305
9.964,-0.99
9.968,-0.715
9.972,-0.535
9.976,-0.405
9.98,-0.35
9.984,-0.315
9.988,-0.32
9.992,-0.325
9.996,-0.325
10.0,-0.325
10.004,-0.325
10.008,-0.3
10.012,-0.28
10.016,-0.28
10.02,-0.27
10.024,-0.29
10.028,-0.295
10.032,-0.31
10.036,-0.32
10.04,-0.32
10.044,-0.355
10.048,-0.37
10.052,-0.365
10.056,-0.34
10.06,-0.33
10.064,-0.33
10.068,-0.335
10.072,-0.355
10.076,-0.365
10.08,-0.39
10.084,-0.385
10.088,-0.39
10.092,-0.38
10.096,-0.41
10.1,-0.425
10.104,-0.44
10.108,-0.45
10.112,-0.45
10.116,-0.465
10.12,-0.485
10.124,-0.54
10.128,-0.565
10.132,-0.595
10.136,-0.62
10.14,-0.66
10.144,-0.66
10.148,-0.66
10.152,-0.67
10.156,-0.715
10.16,-0.75
10.164,-0.78
10.168,-0.825
10.172,-0.855
10.176,-0.87
10.18,-0.9
10.184,-0.9
10.188,-0.905
10.192,-0.9
10.196,-0.93
10.2,-0.93
10.204,-0.94
10.208,-0.96
10.212,-0.94
10.216,-0.91
10.22,-0.885
10.224,-0.85
10.228,-0.8
10.232,-0.73
10.236,-0.66
10.24,-0.585
10.244,-0.525
10.248,-0.48
10.252,-0.42
10.256,-0.375
10.26,-0.34
10.264,-0.295
10.268,-0.245
10.272,-0.205
10.276,-0.19
10.28,-0.15
10.284,-0.125
10.288,-0.13
10.292,-0.105
10.296,-0.1
10.3,-0.1
10.304,-0.105
10.308,-0.12
10.312,-0.13
10.316,-0.13
10.32,-0.115
10.324,-0.12
10.328,-0.095
10.332,-0.09
10.336,-0.09
10.34,-0.09
10.344,-0.12
10.348,-0.135
10.352,-0.14
10.356,-0.14
10.36,-0.13
10.364,-0.13
10.368,-0.14
10.372,-0.14
10.376,-0.12
10.38,-0.14
10.384,-0.135
10.388,-0.15
10.392,-0.145
10.396,-0.16
10.4,-0.17
10.404,-0.175
10.408,-0.19
10.412,-0.19
10.416,-0.17
10.42,-0.16
10.424,-0.17
10.428,-0.175
10.432,-0.18
10.436,-0.195
10.44,-0.205
10.444,-0.23
10.448,-0.2
10.452,-0.205
10.456,-0.205
10.46,-0.21
10.464,-0.195
10.468,-0.19
10.472,-0.17
10.476,-0.19
10.48,-0.215
10.484,-0.22
10.488,-0.205
10.492,-0.21
10.496,-0.2
10.5,-0.195
10.504,-0.185
10.508,-0.195
10.512,-0.185
10.516,-0.175
10.52,-0.225
10.524,-0.205
10.528,-0.21
10.532,-0.215
10.536,-0.23
10.54,-0.23
10.544,-0.225
10.548,-0.2
10.552,-0.195
10.556,-0.175
10.56,-0.18
10.564,-0.165
10.568,-0.16
10.572,-0.19
10.576,-0.19
10.58,-0.21
10.584,-0.21
10.588,-0.21
10.592,-0.185
10.596,-0.18
10.6,-0.18
10.604,-0.17
10.608,-0.16
10.612,-0.16
10.616,-0.13
10.62,-0.135
10.624,-0.095
10.628,-0.06
10.632,-0.055
10.636,-0.04
10.64,-0.03
10.644,-0.005
10.648,0.01
10.652,-0.015
10.656,-0.035
10.66,-0.025
10.664,-0.04
10.668,-0.085
10.672,-0.12
10.676,-0.12
10.68,-0.105
10.684,-0.12
10.688,-0.15
10.692,-0.165
10.696,-0.18
10.7,-0.22
10.704,-0.25
10.708,-0.245
10.712,-0.245
10.716,-0.23
10.72,-0.225
10.724,-0.175
10.728,-0.105
10.732,-0.05
10.736,0.09
10.74,0.375
10.744,0.7
10.748,0.95
10.752,1.13
10.756,1.225
10.76,0.94
10.764,0.03
10.768,-0.885
10.772,-1.465
10.776,-1.62
10.78,-1.55
10.784,-1.37
10.788,-1.085
10.792,-0.805
10.796,-0.58
10.8,-0.465
10.804,-0.39
10.808,-0.31
10.812,-0.3
10.816,-0.275
10.82,-0.245
10.824,-0.22
10.828,-0.21
10.832,-0.22
10.836,-0.25
10.84,-0.26
10.844,-0.275
10.848,-0.24
10.852,-0.275
10.856,-0.28
10.86,-0.26
10.864,-0.26
10.868,-0.27
10.872,-0.255
10.876,-0.275
10.88,-0.28
10.884,-0.29
10.888,-0.275
10.892,-0.275
10.896,-0.295
10.9,-0.305
10.904,-0.305
10.908,-0.3
10.912,-0.32
10.916,-0.285
10.92,-0.28
10.924,-0.32
10.928,-0.365
10.932,-0.38
10.936,-0.415
10.94,-0.4
10.944,-0.415
10.948,-0.44
10.952,-0.445
10.956,-0.47
10.96,-0.515
10.964,-0.52
10.968,-0.545
10.972,-0.585
10.976,-0.64
10.98,-0.665
10.984,-0.7
10.988,-0.72
10.992,-0.745
10.996,-0.72
11.0,-0.725
11.004,-0.75
11.008,-0.785
11.012,-0.795
11.016,-0.84
11.02,-0.835
11.024,-0.825
11.028,-0.84
11.032,-0.835
11.036,-0.77
11.04,-0.695
11.044,-0.64
11.048,-0.62
11.052,-0.555
11.056,-0.51
11.06,-0.445
11.064,-0.415
11.068,-0.33
11.072,-0.305
11.076,-0.275
11.08,-0.245
11.084,-0.18
11.088,-0.14
11.092,-0.095
11.096,-0.07
11.1,-0.09
11.104,-0.08
11.108,-0.075
11.112,-0.095
11.116,-0.14
11.12,-0.11
11.124,-0.115
11.128,-0.09
11.132,-0.08
11.136,-0.1
11.14,-0.115
11.144,-0.105
11.148,-0.1
11.152,-0.135
11.156,-0.12
11.16,-0.12
11.164,-0.155
11.168,-0.16
11.172,-0.16
11.176,-0.13
11.18,-0.12
11.184,-0.135
11.188,-0.125
11.192,-0.145
11.196,-0.15
11.2,-0.165
11.204,-0.175
11.208,-0.175
11.212,-0.17
11.216,-0.175
11.22,-0.155
11.224,-0.16
11.228,-0.17
11.232,-0.16
11.236,-0.175
11.24,-0.17
11.244,-0.21
11.248,-0.195
11.252,-0.185
11.256,-0.16
11.26,-0.17
11.264,-0.175
11.268,-0.145
11.272,-0.1
11.276,-0.055
11.28,-0.005
11.284,0.195
11.288,0.52
11.292,0.885
11.296,1.135
11.3,1.33
11.304,1.27
11.308,0.615
11.312,-0.4
11.316,-1.2
11.32,-1.52
11.324,-1.435
11.328,-1.265
11.332,-0.98
11.336,-0.66
11.34,-0.39
11.344,-0.225
11.348,-0.13
11.352,-0.08
11.356,-0.06
11.36,-0.105
11.364,-0.09
11.368,-0.135
11.372,-0.12
11.376,-0.105
11.38,-0.1
11.384,-0.095
11.388,-0.11
11.392,-0.095
11.396,-0.095
11.4,-0.115
11.404,-0.145
11.408,-0.135
11.412,-0.15
11.416,-0.2
11.42,-0.24
11.424,-0.25
11.428,-0.245
11.432,-0.235
11.436,-0.245
11.44,-0.26
11.444,-0.24
11.448,-0.225
11.452,-0.22
11.456,-0.23
11.46,-0.28
11.464,-0.3
11.468,-0.31
11.472,-0.345
11.476,-0.35
11.48,-0.37
11.484,-0.39
11.488,-0.39
11.492,-0.405
11.496,-0.39
11.5,-0.44
11.504,-0.435
11.508,-0.475
11.512,-0.525
11.516,-0.565
11.52,-0.585
11.524,-0.58
11.528,-0.59
11.532,-0.62
11.536,-0.62
11.54,-0.615
11.544,-0.61
11.548,-0.66
11.552,-0.665
11.556,-0.63
11.56,-0.61
11.564,-0.55
11.568,-0.48
11.572,-0.42
11.576,-0.31
11.58,-0.225
11.584,-0.175
11.588,-0.09
11.592,-0.03
11.596,-0.045
11.6,-0.03
11.604,0.01
11.608,0.035
11.612,0.035
11.616,0.06
11.62,0.075
11.624,0.07
11.628,0.09
11.632,0.09
11.636,0.065
11.64,0.04
11.644,0.005
11.648,-0.02
11.652,-0.05
11.656,-0.06
11.66,-0.055
11.664,-0.085
11.668,-0.085
11.672,-0.105
11.676,-0.1
11.68,-0.12
11.684,-0.16
11.688,-0.18
11.692,-0.17
11.696,-0.185
11.7,-0.185
11.704,-0.185
11.708,-0.18
11.712,-0.18
11.716,-0.2
11.72,-0.21
11.724,-0.22
11.728,-0.215
11.732,-0.215
11.736,-0.23
11.74,-0.25
11.744,-0.26
11.748,-0.24
11.752,-0.25
11.756,-0.235
11.76,-0.23
11.764,-0.255
11.768,-0.285
11.772,-0.31
11.776,-0.32
11.78,-0.33
11.784,-0.32
11.788,-0.3
11.792,-0.285
11.796,-0.255
11.8,-0.215
11.804,-0.185
11.808,-0.16
11.812,-0.115
11.816,-0.01
11.82,0.075
11.824,0.235
11.828,0.525
11.832,0.9
11.836,1.16
11.84,1.34
11.844,1.355
11.848,0.89
11.852,-0.095
11.856,-0.99
11.86,-1.435
11.864,-1.515
11.868,-1.395
11.872,-1.17
11.876,-0.855
11.88,-0.58
11.884,-0.395
11.888,-0.3
11.892,-0.245
11.896,-0.205
11.9,-0.17
11.904,-0.19
11.908,-0.19
11.912,-0.205
11.916,-0.225
11.92,-0.23
11.924,-0.23
11.928,-0.24
11.932,-0.215
11.936,-0.215
11.94,-0.21
11.944,-0.24
11.948,-0.235
11.952,-0.245
11.956,-0.26
11.96,-0.265
11.964,-0.275
11.968,-0.28
11.972,-0.27
11.976,-0.27
11.98,-0.275
11.984,-0.28
11.988,-0.29
11.992,-0.33
11.996,-0.355
12.0,-0.385
12.004,-0.415
12.008,-0.46
12.012,-0.48
12.016,-0.505
12.02,-0.52
12.024,-0.575
12.028,-0.595
12.032,-0.62
12.036,-0.63
12.04,-0.66
12.044,-0.68
12.048,-0.645
12.052,-0.62
12.056,-0.605
12.06,-0.59
12.064,-0.58
12.068,-0.57
12.072,-0.6
12.076,-0.615
12.08,-0.59
12.084,-0.615
12.088,-0.59
12.092,-0.575
12.096,-0.52
12.1,-0.535
12.104,-0.52
12.108,-0.49
12.112,-0.43
12.116,-0.39
12.12,-0.35
12.124,-0.35
12.128,-0.32
12.132,-0.265
12.136,-0.215
12.14,-0.19
12.144,-0.185
12.148,-0.155
12.152,-0.13
12.156,-0.075
12.16,-0.055
12.164,-0.05
12.168,-0.035
12.172,-0.05
12.176,-0.045
12.18,-0.06
12.184,-0.07
12.188,-0.07
12.192,-0.08
12.196,-0.055
12.2,-0.05
12.204,-0.06
12.208,-0.07
12.212,-0.075
12.216,-0.095
12.22,-0.1
12.224,-0.125
12.228,-0.125
12.232,-0.12
12.236,-0.12
12.24,-0.14
12.244,-0.14
12.248,-0.175
12.252,-0.185
12.256,-0.21
12.26,-0.225
12.264,-0.255
12.268,-0.275
12.272,-0.295
12.276,-0.3
12.28,-0.275
12.284,-0.25
12.288,-0.265
12.292,-0.265
12.296,-0.265
12.3,-0.25
12.304,-0.19
12.308,-0.125
12.312,-0.06
12.316,0.07
12.32,0.275
12.324,0.51
12.328,0.73
12.332,0.91
12.336,1.06
12.34,0.825
12.344,-0.04
12.348,-1.035
12.352,-1.59
12.356,-1.67
12.36,-1.425
12.364,-0.995
12.368,-0.63
12.372,-0.4
12.376,-0.26
12.38,-0.19
12.384,-0.13
12.388,-0.16
12.392,-0.175
12.396,-0.2
12.4,-0.17
12.404,-0.18
12.408,-0.19
12.412,-0.195
12.416,-0.185
12.42,-0.175
12.424,-0.16
12.428,-0.175
12.432,-0.17
12.436,-0.18
12.44,-0.21
12.444,-0.24
12.448,-0.22
12.452,-0.235
12.456,-0.225
12.46,-0.225
12.464,-0.24
12.468,-0.235
12.472,-0.26
12.476,-0.285
12.48,-0.335
12.484,-0.35
12.488,-0.39
12.492,-0.445
12.496,-0.475
12.5,-0.49
12.504,-0.505
12.508,-0.5
12.512,-0.51
12.516,-0.525
12.52,-0.535
12.524,-0.57
12.528,-0.6
12.532,-0.625
12.536,-0.64
12.54,-0.64
12.544,-0.635
12.548,-0.58
12.552,-0.545
12.556,-0.56
12.56,-0.595
12.564,-0.595
12.568,-0.63
12.572,-0.635
12.576,-0.64
12.58,-0.655
12.584,-0.665
12.588,-0.665
12.592,-0.64
12.596,-0.6
12.6,-0.56
12.604,-0.51
12.608,-0.48
12.612,-0.445
12.616,-0.41
12.62,-0.36
12.624,-0.285
12.628,-0.24
12.632,-0.18
12.636,-0.135
12.64,-0.1
12.644,-0.065
12.648,-0.06
12.652,-0.035
12.656,-0.04
12.66,-0.065
12.664,-0.05
12.668,-0.07
12.672,-0.085
12.676,-0.115
12.68,-0.065
12.684,-0.075
12.688,-0.08
12.692,-0.085
12.696,-0.125
12.7,-0.115
12.704,-0.12
12.708,-0.145
12.712,-0.105
12.716,-0.03
12.72,0.085
12.724,0.23
12.728,0.49
12.732,0.735
12.736,0.99
12.74,1.18
12.744,1.345
12.748,0.995
12.752,-0.065
12.756,-1.1
12.76,-1.475
12.764,-1.47
12.768,-1.295
12.772,-0.955
12.776,-0.59
12.78,-0.32
12.784,-0.2
12.788,-0.11
12.792,-0.09
12.796,-0.075
12.8,-0.08
12.804,-0.095
12.808,-0.105
12.812,-0.095
12.816,-0.09
12.82,-0.095
12.824,-0.095
12.828,-0.075
12.832,-0.06
12.836,-0.11
12.84,-0.145
12.844,-0.16
12.848,-0.19
12.852,-0.195
12.856,-0.185
12.86,-0.165
12.864,-0.17
12.868,-0.16
12.872,-0.19
12.876,-0.21
12.88,-0.205
12.884,-0.235
12.888,-0.26
12.892,-0.275
12.896,-0.26
12.9,-0.29
12.904,-0.27
12.908,-0.295
12.912,-0.325
12.916,-0.355
12.92,-0.36
12.924,-0.42
12.928,-0.485
12.932,-0.525
12.936,-0.535
12.94,-0.56
12.944,-0.555
12.948,-0.56
12.952,-0.575
12.956,-0.58
12.96,-0.575
12.964,-0.58
12.968,-0.57
12.972,-0.58
12.976,-0.565
12.98,-0.535
12.984,-0.51
12.988,-0.44
12.992,-0.405
12.996,-0.325
13.0,-0.29
13.004,-0.245
13.008,-0.2
13.012,-0.145
13.016,-0.085
13.02,-0.035
13.024,0.05
13.028,0.085
13.032,0.08
13.036,0.085
13.04,0.11
13.044,0.11
13.048,0.11
13.052,0.09
13.056,0.055
13.06,0.035
13.064,0.015
13.068,0.01
13.072,-0.02
13.076,-0.01
13.08,-0.03
13.084,-0.06
13.088,-0.05
13.092,-0.06
13.096,-0.06
13.1,-0.09
13.104,-0.085
13.108,-0.075
13.112,-0.115
13.116,-0.14
13.12,-0.12
13.124,-0.155
13.128,-0.145
13.132,-0.13
13.136,-0.11
13.14,-0.11
13.144,-0.11
13.148,-0.12
13.152,-0.125
13.156,-0.15
13.16,-0.12
13.164,-0.145
13.168,-0.14
13.172,-0.15
13.176,-0.14
13.18,-0.11
13.184,-0.1
13.188,-0.11
13.192,-0.045
13.196,0.175
13.2,0.505
13.204,0.75
13.208,0.905
13.212,0.875
13.216,0.3
13.22,-0.71
13.224,-1.495
13.228,-1.855
13.232,-1.81
13.236,-1.575
13.24,-1.175
13.244,-0.785
13.248,-0.48
13.252,-0.325
13.256,-0.205
13.26,-0.12
13.264,-0.1
13.268,-0.11
13.272,-0.105
13.276,-0.11
13.28,-0.12
13.284,-0.125
13.288,-0.155
13.292,-0.16
13.296,-0.175
13.3,-0.18
13.304,-0.175
13.308,-0.175
13.312,-0.175
13.316,-0.18
13.32,-0.19
13.324,-0.2
13.328,-0.21
13.332,-0.25
13.336,-0.255
13.34,-0.255
13.344,-0.275
13.348,-0.26
13.352,-0.26
13.356,-0.275
13.36,-0.28
13.364,-0.295
13.368,-0.32
13.372,-0.345
13.376,-0.35
13.38,-0.36
13.384,-0.38
13.388,-0.38
13.392,-0.425
13.396,-0.44
13.4,-0.43
13.404,-0.44
13.408,-0.45
13.412,-0.47
13.416,-0.475
13.42,-0.505
13.424,-0.5
13.428,-0.515
13.432,-0.515
13.436,-0.51
13.44,-0.505
13.444,-0.51
13.448,-0.495
13.452,-0.485
13.456,-0.47
13.46,-0.465
13.464,-0.5
13.468,-0.485
13.472,-0.455
13.476,-0.425
13.48,-0.395
13.484,-0.345
13.488,-0.26
13.492,-0.17
13.496,-0.08
13.5,-0.03
13.504,0.005
13.508,0.015
13.512,0.015
13.516,0.015
13.52,0.01
13.524,0.025
13.528,0.03
13.532,0.02
13.536,0.015
13.54,0.01
13.544,-0.01
13.548,-0.03
13.552,-0.06
13.556,-0.105
13.56,-0.105
13.564,-0.14
13.568,-0.145
13.572,-0.14
13.576,-0.16
13.58,-0.14
13.584,-0.16
13.588,-0.17
13.592,-0.205
13.596,-0.185
13.6,-0.23
13.604,-0.22
13.608,-0.24
13.612,-0.235
13.616,-0.225
13.62,-0.225
13.624,-0.215
13.628,-0.19
13.632,-0.22
13.636,-0.22
13.64,-0.225
13.644,-0.27
13.648,-0.29
13.652,-0.305
13.656,-0.305
13.66,-0.23
13.664,0.0
13.668,0.335
13.672,0.6
13.676,0.815
13.68,0.89
13.684,0.505
13.688,-0.435
13.692,-1.31
13.696,-1.785
13.7,-1.835
13.704,-1.625
13.708,-1.255
13.712,-0.87
13.716,-0.585
13.72,-0.43
13.724,-0.32
13.728,-0.275
13.732,-0.28
13.736,-0.27
13.74,-0.275
13.744,-0.295
13.748,-0.275
13.752,-0.265
13.756,-0.27
13.76,-0.255
13.764,-0.25
13.768,-0.265
13.772,-0.265
13.776,-0.28
13.78,-0.275
13.784,-0.305
13.788,-0.31
13.792,-0.305
13.796,-0.31
13.8,-0.305
13.804,-0.29
13.808,-0.305
13.812,-0.295
13.816,-0.315
13.82,-0.345
13.824,-0.37
13.828,-0.385
13.832,-0.39
13.836,-0.415
13.84,-0.425
13.844,-0.43
13.848,-0.445
13.852,-0.465
13.856,-0.47
13.86,-0.495
13.864,-0.505
13.868,-0.525
13.872,-0.56
13.876,-0.605
13.88,-0.605
13.884,-0.61
13.888,-0.61
13.892,-0.63
13.896,-0.62
13.9,-0.625
13.904,-0.635
13.908,-0.64
13.912,-0.62
13.916,-0.64
13.92,-0.64
13.924,-0.64
13.928,-0.61
13.932,-0.595
13.936,-0.555
13.94,-0.5
13.944,-0.445
13.948,-0.38
13.952,-0.35
13.956,-0.33
13.96,-0.275
13.964,-0.245
13.968,-0.23
13.972,-0.175
13.976,-0.14
13.98,-0.095
13.984,-0.065
13.988,-0.045
13.992,-0.025
13.996,-0.015
14.0,-0.015
14.004,-0.045
14.008,-0.1
14.012,-0.08
14.016,-0.075
14.02,-0.08
14.024,-0.07
14.028,-0.08
14.032,-0.085
14.036,-0.095
14.04,-0.115
14.044,-0.125
14.048,-0.13
14.052,-0.145
14.056,-0.16
14.06,-0.145
14.064,-0.16
14.068,-0.15
14.072,-0.155
14.076,-0.15
14.08,-0.135
14.084,-0.145
14.088,-0.14
14.092,-0.175
14.096,-0.18
14.1,-0.18
14.104,-0.2
14.108,-0.2
14.112,-0.2
14.116,-0.18
14.12,-0.185
14.124,-0.18
14.128,-0.175
14.132,-0.155
14.136,-0.18
14.14,-0.2
14.144,-0.185
14.148,-0.19
14.152,-0.195
14.156,-0.19
14.16,-0.195
14.164,-0.175
14.168,-0.175
14.172,-0.18
14.176,-0.18
14.18,-0.18
14.184,-0.2
14.188,-0.18
14.192,-0.205
14.196,-0.22
14.2,-0.23
14.204,-0.215
14.208,-0.21
14.212,-0.17
14.216,-0.165
14.22,-0.16
14.224,-0.195
14.228,-0.19
14.232,-0.195
14.236,-0.22
14.24,-0.19
14.244,-0.19
14.248,-0.2
14.252,-0.155
14.256,-0.17
14.26,-0.175
14.264,-0.185
14.268,-0.17
14.272,-0.215
14.276,-0.225
14.28,-0.21
14.284,-0.195
14.288,-0.195
14.292,-0.19
14.296,-0.175
14.3,-0.17
14.304,-0.17
14.308,-0.195
14.312,-0.175
14.316,-0.2
14.32,-0.195
14.324,-0.19
14.328,-0.215
14.332,-0.195
14.336,-0.205
14.34,-0.21
14.344,-0.19
14.348,-0.17
14.352,-0.185
14.356,-0.18
14.36,-0.225
14.364,-0.22
14.368,-0.215
14.372,-0.215
14.376,-0.23
14.38,-0.22
14.384,-0.185
14.388,-0.19
14.392,-0.165
14.396,-0.17
14.4,-0.2
14.404,-0.215
14.408,-0.235
14.412,-0.24
14.416,-0.215
14.42,-0.205
14.424,-0.22
14.428,-0.205
14.432,-0.185
14.436,-0.185
14.44,-0.2
14.444,-0.185
14.448,-0.175
14.452,-0.145
14.456,-0.125
14.46,-0.1
14.464,-0.105
14.468,-0.1
14.472,-0.08
14.476,-0.065
14.48,-0.02
14.484,0.0
14.488,-0.01
14.492,0.0
14.496,0.015
14.5,-0.005
14.504,-0.06
14.508,-0.105
14.512,-0.14
14.516,-0.16
14.52,-0.185
14.524,-0.205
14.528,-0.245
14.532,-0.255
14.536,-0.275
14.54,-0.3
14.544,-0.315
14.548,-0.295
14.552,-0.285
14.556,-0.265
14.56,-0.205
14.564,-0.125
14.568,-0.01
14.572,0.23
14.576,0.575
14.58,0.835
14.584,1.015
14.588,1.15
14.592,0.98
14.596,0.255
14.6,-0.68
14.604,-1.365
14.608,-1.625
14.612,-1.585
14.616,-1.44
14.62,-1.17
14.624,-0.86
14.628,-0.64
14.632,-0.52
14.636,-0.445
14.64,-0.39
14.644,-0.365
14.648,-0.375
14.652,-0.35
14.656,-0.335
14.66,-0.325
14.664,-0.325
14.668,-0.345
14.672,-0.36
14.676,-0.37
14.68,-0.38
14.684,-0.375
14.688,-0.37
14.692,-0.355
14.696,-0.35
14.7,-0.355
14.704,-0.355
14.708,-0.365
14.712,-0.385
14.716,-0.405
14.72,-0.4
14.724,-0.43
14.728,-0.44
14.732,-0.44
14.736,-0.44
14.74,-0.41
14.744,-0.42
14.748,-0.415
14.752,-0.43
14.756,-0.415
14.76,-0.45
14.764,-0.46
14.768,-0.475
14.772,-0.485
14.776,-0.49
14.78,-0.485
14.784,-0.465
14.788,-0.47
14.792,-0.46
14.796,-0.485
14.8,-0.48
14.804,-0.5
14.808,-0.53
14.812,-0.53
14.816,-0.52
14.82,-0.52
14.824,-0.53
14.828,-0.495
14.832,-0.5
14.836,-0.495
14.84,-0.48
14.844,-0.51
14.848,-0.5
14.852,-0.505
14.856,-0.525
14.86,-0.515
14.864,-0.5
14.868,-0.51
14.872,-0.47
14.876,-0.42
14.88,-0.415
14.884,-0.38
14.888,-0.39
14.892,-0.355
14.896,-0.345
14.9,-0.315
14.904,-0.27
14.908,-0.245
14.912,-0.2
14.916,-0.17
14.92,-0.135
14.924,-0.095
14.928,-0.08
14.932,-0.065
14.936,-0.07
14.94,-0.06
14.944,-0.08
14.948,-0.075
14.952,-0.07
14.956,-0.065
14.96,-0.06
14.964,-0.065
14.968,-0.065
14.972,-0.075
14.976,-0.105
14.98,-0.1
14.984,-0.14
14.988,-0.155
14.992,-0.17
14.996,-0.16
15.0,-0.17
15.004,-0.17
15.008,-0.145
15.012,-0.125
15.016,-0.135
15.02,-0.14
15.024,-0.125
15.028,-0.145
15.032,-0.165
15.036,-0.17
15.04,-0.165
15.044,-0.19
15.048,-0.19
15.052,-0.17
15.056,-0.155
15.06,-0.15
15.064,-0.16
15.068,-0.17
15.072,-0.195
15.076,-0.225
15.08,-0.22
15.084,-0.23
15.088,-0.22
15.092,-0.21
15.096,-0.19
15.1,-0.2
15.104,-0.195
15.108,-0.185
15.112,-0.19
15.116,-0.225
15.12,-0.245
15.124,-0.24
15.128,-0.225
15.132,-0.23
15.136,-0.22
15.14,-0.205
15.144,-0.185
15.148,-0.195
15.152,-0.205
15.156,-0.21
15.16,-0.225
15.164,-0.225
15.168,-0.22
15.172,-0.22
15.176,-0.26
15.18,-0.23
15.184,-0.215
15.188,-0.21
15.192,-0.225
15.196,-0.215
15.2,-0.22
15.204,-0.22
15.208,-0.24
15.212,-0.255
15.216,-0.25
15.22,-0.24
15.224,-0.24
15.228,-0.225
15.232,-0.21
15.236,-0.21
15.24,-0.225
15.244,-0.225
15.248,-0.22
15.252,-0.26
15.256,-0.27
15.26,-0.255
15.264,-0.26
15.268,-0.27
15.272,-0.265
15.276,-0.24
15.28,-0.245
15.284,-0.25
15.288,-0.22
15.292,-0.245
15.296,-0.245
15.3,-0.24
15.304,-0.235
15.308,-0.23
15.312,-0.22
15.316,-0.185
15.32,-0.14
15.324,-0.105
15.328,-0.085
15.332,-0.115
15.336,-0.105
15.34,-0.1
15.344,-0.095
15.348,-0.105
15.352,-0.125
15.356,-0.095
15.36,-0.08
15.364,-0.11
15.368,-0.135
15.372,-0.145
15.376,-0.17
15.38,-0.215
15.384,-0.27
15.388,-0.295
15.392,-0.32
15.396,-0.31
15.4,-0.34
15.404,-0.335
15.408,-0.33
15.412,-0.305
15.416,-0.295
15.42,-0.285
15.424,-0.225
15.428,-0.195
15.432,-0.065
15.436,0.17
15.44,0.51
15.444,0.8
15.448,0.98
15.452,1.11
15.456,0.89
15.46,0.135
15.464,-0.795
15.468,-1.415
15.472,-1.68
15.476,-1.665
15.48,-1.53
15.484,-1.24
15.488,-0.965
15.492,-0.715
15.496,-0.575
15.5,-0.45
15.504,-0.38
15.508,-0.365
15.512,-0.385
15.516,-0.385
15.52,-0.4
15.524,-0.4
15.528,-0.38
15.532,-0.38
15.536,-0.385
15.54,-0.395
15.544,-0.395
15.548,-0.385
15.552,-0.4
15.556,-0.395
15.56,-0.39
15.564,-0.395
15.568,-0.405
15.572,-0.415
15.576,-0.425
15.58,-0.425
15.584,-0.42
15.588,-0.395
15.592,-0.43
15.596,-0.42
15.6,-0.445
15.604,-0.46
15.608,-0.495
15.612,-0.52
15.616,-0.505
15.62,-0.52
15.624,-0.555
15.628,-0.56
15.632,-0.57
15.636,-0.595
15.64,-0.615
15.644,-0.62
15.648,-0.655
15.652,-0.655
15.656,-0.685
15.66,-0.73
15.664,-0.73
15.668,-0.77
15.672,-0.785
15.676,-0.775
15.68,-0.79
15.684,-0.81
15.688,-0.815
15.692,-0.85
15.696,-0.865
15.7,-0.895
15.704,-0.885
15.708,-0.92
15.712,-0.955
15.716,-0.955
15.72,-0.94
15.724,-0.895
15.728,-0.885
15.732,-0.875
15.736,-0.83
15.74,-0.79
15.744,-0.76
15.748,-0.735
15.752,-0.67
15.756,-0.635
15.76,-0.565
15.764,-0.505
15.768,-0.435
15.772,-0.385
15.776,-0.37
15.78,-0.335
15.784,-0.3
15.788,-0.285
15.792,-0.275
15.796,-0.27
15.8,-0.27
15.804,-0.26
15.808,-0.235
15.812,-0.235
15.816,-0.24
15.82,-0.22
15.824,-0.22
15.828,-0.245
15.832,-0.255
15.836,-0.255
15.84,-0.275
15.844,-0.275
15.848,-0.285
15.852,-0.275
15.856,-0.265
15.86,-0.24
15.864,-0.24
15.868,-0.24
15.872,-0.255
15.876,-0.265
15.88,-0.285
15.884,-0.285
15.888,-0.285
15.892,-0.29
15.896,-0.285
15.9,-0.295
15.904,-0.28
15.908,-0.27
15.912,-0.26
15.916,-0.26
15.92,-0.27
15.924,-0.275
15.928,-0.275
15.932,-0.28
15.936,-0.285
15.94,-0.27
15.944,-0.295
15.948,-0.285
15.952,-0.27
15.956,-0.29
15.96,-0.29
15.964,-0.315
15.968,-0.305
15.972,-0.2
15.976,0.13
15.98,0.54
15.984,0.855
15.988,1.055
15.992,0.865
15.996,0.025
16.0,-0.92
16.004,-1.575
16.008,-1.77
16.012,-1.715
16.016,-1.51
16.02,-1.18
16.024,-0.84
16.028,-0.575
16.032,-0.405
16.036,-0.315
16.04,-0.28
16.044,-0.25
16.048,-0.24
16.052,-0.24
16.056,-0.27
16.06,-0.235
16.064,-0.26
16.068,-0.285
16.072,-0.245
16.076,-0.255
16.08,-0.245
16.084,-0.235
16.088,-0.22
16.092,-0.24
16.096,-0.255
16.1,-0.25
16.104,-0.235
16.108,-0.255
16.112,-0.26
16.116,-0.28
16.12,-0.285
16.124,-0.275
16.128,-0.265
16.132,-0.28
16.136,-0.275
16.14,-0.27
16.144,-0.305
16.148,-0.335
16.152,-0.335
16.156,-0.37
16.16,-0.39
16.164,-0.4
16.168,-0.43
16.172,-0.445
16.176,-0.46
16.18,-0.44
16.184,-0.48
16.188,-0.48
16.192,-0.515
16.196,-0.52
16.2,-0.54
16.204,-0.56
16.208,-0.59
16.212,-0.585
16.216,-0.575
16.22,-0.575
16.224,-0.555
16.228,-0.57
16.232,-0.61
16.236,-0.6
16.24,-0.575
16.244,-0.565
16.248,-0.525
16.252,-0.475
16.256,-0.415
16.26,-0.35
16.264,-0.29
16.268,-0.245
16.272,-0.18
16.276,-0.155
16.28,-0.145
16.284,-0.115
16.288,-0.095
16.292,-0.1
16.296,-0.07
16.3,-0.04
16.304,-0.02
16.308,-0.02
16.312,-0.005
16.316,-0.02
16.32,-0.005
16.324,-0.07
16.328,-0.095
16.332,-0.1
16.336,-0.11
16.34,-0.105
16.344,-0.125
16.348,-0.12
16.352,-0.12
16.356,-0.1
16.36,-0.12
16.364,-0.12
16.368,-0.125
16.372,-0.14
16.376,-0.16
16.38,-0.14
16.384,-0.13
16.388,-0.125
16.392,-0.14
16.396,-0.175
16.4,-0.175
16.404,-0.18
16.408,-0.15
16.412,-0.175
16.416,-0.21
16.42,-0.215
16.424,-0.215
16.428,-0.205
16.432,-0.18
16.436,-0.17
16.44,-0.17
16.444,-0.185
16.448,-0.17
16.452,-0.175
16.456,-0.205
16.46,-0.21
16.464,-0.21
16.468,-0.195
16.472,-0.16
16.476,-0.145
16.48,-0.145
16.484,-0.09
16.488,-0.01
16.492,0.035
16.496,0.095
16.5,0.115
16.504,0.075
16.508,0.1
16.512,0.09
16.516,0.11
16.52,0.08
16.524,0.04
16.528,0.0
16.532,-0.05
16.536,-0.12
16.54,-0.15
16.544,-0.175
16.548,-0.17
16.552,-0.225
16.556,-0.305
16.56,-0.3
16.564,-0.28
16.568,-0.225
16.572,-0.185
16.576,-0.155
16.58,-0.11
16.584,-0.06
16.588,0.075
16.592,0.34
16.596,0.705
16.6,1.015
16.604,1.22
16.608,1.25
16.612,0.79
16.616,-0.12
16.62,-0.945
16.624,-1.415
16.628,-1.515
16.632,-1.435
16.636,-1.315
16.64,-1.12
16.644,-0.845
16.648,-0.585
16.652,-0.455
16.656,-0.425
16.66,-0.415
16.664,-0.355
16.668,-0.33
16.672,-0.31
16.676,-0.32
16.68,-0.325
16.684,-0.32
16.688,-0.315
16.692,-0.32
16.696,-0.295
16.7,-0.26
16.704,-0.28
16.708,-0.305
16.712,-0.335
16.716,-0.35
16.72,-0.36
16.724,-0.35
16.728,-0.375
16.732,-0.405
16.736,-0.4
16.74,-0.42
16.744,-0.48
16.748,-0.53
16.752,-0.52
16.756,-0.52
16.76,-0.495
16.764,-0.54
16.768,-0.625
16.772,-0.68
16.776,-0.67
16.78,-0.69
16.784,-0.695
16.788,-0.715
16.792,-0.69
16.796,-0.75
16.8,-0.8
16.804,-0.815
16.808,-0.815
16.812,-0.845
16.816,-0.89
16.82,-0.915
16.824,-0.925
16.828,-0.955
16.832,-0.975
16.836,-0.96
16.84,-0.96
16.844,-1.0
16.848,-1.03
16.852,-1.07
16.856,-1.09
16.86,-1.08
16.864,-1.095
16.868,-1.11
16.872,-1.07
16.876,-1.04
16.88,-1.02
16.884,-0.96
16.888,-0.92
16.892,-0.875
16.896,-0.81
16.9,-0.78
16.904,-0.72
16.908,-0.695
16.912,-0.64
16.916,-0.6
16.92,-0.565
16.924,-0.505
16.928,-0.445
16.932,-0.42
16.936,-0.44
16.94,-0.44
16.944,-0.445
16.948,-0.42
16.952,-0.415
16.956,-0.395
16.96,-0.355
16.964,-0.355
16.968,-0.36
16.972,-0.34
16.976,-0.31
16.98,-0.31
16.984,-0.315
16.988,-0.36
16.992,-0.36
16.996,-0.37
17.0,-0.365
17.004,-0.365
17.008,-0.375
17.012,-0.36
17.016,-0.35
17.02,-0.345
17.024,-0.34
17.028,-0.36
17.032,-0.36
17.036,-0.4
17.04,-0.41
17.044,-0.425
17.048,-0.425
17.052,-0.425
17.056,-0.41
17.06,-0.41
17.064,-0.41
17.068,-0.4
17.072,-0.43
17.076,-0.445
17.08,-0.45
17.084,-0.45
17.088,-0.46
17.092,-0.49
17.096,-0.48
17.1,-0.475
17.104,-0.47
17.108,-0.475
17.112,-0.475
17.116,-0.485
17.12,-0.515
17.124,-0.505
17.128,-0.515
17.132,-0.495
17.136,-0.51
17.14,-0.5
17.144,-0.5
17.148,-0.5
17.152,-0.5
17.156,-0.505
17.16,-0.515
17.164,-0.545
17.168,-0.555
17.172,-0.54
17.176,-0.525
17.18,-0.525
17.184,-0.535
17.188,-0.535
17.192,-0.515
17.196,-0.51
17.2,-0.505
17.204,-0.535
17.208,-0.53
17.212,-0.54
17.216,-0.54
17.22,-0.54
17.224,-0.535
17.228,-0.545
17.232,-0.54
17.236,-0.54
17.24,-0.525
17.244,-0.525
17.248,-0.525
17.252,-0.56
17.256,-0.565
17.26,-0.56
17.264,-0.55
17.268,-0.535
17.272,-0.53
17.276,-0.54
17.28,-0.53
17.284,-0.52
17.288,-0.51
17.292,-0.53
17.296,-0.55
17.3,-0.555
17.304,-0.57
17.308,-0.54
17.312,-0.565
17.316,-0.525
17.32,-0.54
17.324,-0.535
17.328,-0.525
17.332,-0.52
17.336,-0.525
17.34,-0.545
17.344,-0.565
17.348,-0.555
17.352,-0.56
17.356,-0.545
17.36,-0.57
17.364,-0.55
17.368,-0.555
17.372,-0.54
17.376,-0.54
17.38,-0.52
17.384,-0.54
17.388,-0.55
17.392,-0.57
17.396,-0.58
17.4,-0.56
17.404,-0.54
17.408,-0.54
17.412,-0.55
17.416,-0.57
17.42,-0.545
17.424,-0.525
17.428,-0.525
17.432,-0.485
17.436,-0.46
17.44,-0.45
17.444,-0.435
17.448,-0.425
17.452,-0.395
17.456,-0.365
17.46,-0.35
17.464,-0.36
17.468,-0.365
17.472,-0.375
17.476,-0.375
17.48,-0.395
17.484,-0.435
17.488,-0.455
17.492,-0.485
17.496,-0.49
17.5,-0.5
17.504,-0.515
17.508,-0.54
17.512,-0.57
17.516,-0.62
17.52,-0.62
17.524,-0.64
17.528,-0.61
17.532,-0.615
17.536,-0.585
17.54,-0.51
17.544,-0.43
17.548,-0.3
17.552,-0.075
17.556,0.23
17.56,0.455
17.564,0.56
17.568,0.645
17.572,0.47
17.576,-0.19
17.58,-1.09
17.584,-1.72
17.588,-1.94
17.592,-1.905
17.596,-1.73
17.6,-1.455
17.604,-1.165
17.608,-0.97
17.612,-0.815
17.616,-0.725
17.62,-0.66
17.624,-0.635
17.628,-0.63
17.632,-0.615
17.636,-0.62
17.64,-0.605
17.644,-0.62
17.648,-0.63
17.652,-0.63
17.656,-0.63
17.66,-0.64
17.664,-0.635
17.668,-0.625
17.672,-0.64
17.676,-0.63
17.68,-0.625
17.684,-0.64
17.688,-0.615
17.692,-0.64
17.696,-0.675
17.7,-0.695
17.704,-0.675
17.708,-0.685
17.712,-0.7
17.716,-0.725
17.72,-0.71
17.724,-0.705
17.728,-0.71
17.732,-0.71
17.736,-0.725
17.74,-0.73
17.744,-0.77
17.748,-0.79
17.752,-0.79
17.756,-0.775
17.76,-0.815
17.764,-0.815
17.768,-0.82
17.772,-0.85
17.776,-0.83
17.78,-0.86
17.784,-0.91
17.788,-0.96
17.792,-0.945
17.796,-0.99
17.8,-0.985
17.804,-1.0
17.808,-0.99
17.812,-1.01
17.816,-1.01
17.82,-1.005
17.824,-1.03
17.828,-1.07
17.832,-1.075
17.836,-1.11
17.84,-1.125
17.844,-1.12
17.848,-1.095
17.852,-1.075
17.856,-1.015
17.86,-0.98
17.864,-0.92
17.868,-0.9
17.872,-0.885
17.876,-0.845
17.88,-0.78
17.884,-0.72
17.888,-0.655
17.892,-0.59
17.896,-0.52
17.9,-0.495
17.904,-0.45
17.908,-0.42
17.912,-0.39
17.916,-0.39
17.92,-0.43
17.924,-0.415
17.928,-0.4
17.932,-0.395
17.936,-0.395
17.94,-0.38
17.944,-0.365
17.948,-0.355
17.952,-0.35
17.956,-0.365
17.96,-0.355
17.964,-0.36
17.968,-0.385
17.972,-0.395
17.976,-0.39
17.98,-0.4
17.984,-0.395
17.988,-0.38
17.992,-0.375
17.996,-0.38
18.0,-0.39
18.004,-0.405
18.008,-0.415
18.012,-0.425
18.016,-0.435
18.02,-0.405
18.024,-0.42
18.028,-0.44
18.032,-0.42
18.036,-0.42
18.04,-0.42
18.044,-0.455
18.048,-0.46
18.052,-0.435
18.056,-0.455
18.06,-0.435
18.064,-0.465
18.068,-0.45
18.072,-0.45
18.076,-0.42
18.08,-0.44
18.084,-0.43
18.088,-0.42
18.092,-0.415
18.096,-0.415
18.1,-0.41
18.104,-0.455
18.108,-0.385
18.112,-0.16
18.116,0.2
18.12,0.54
18.124,0.74
18.128,0.61
18.132,-0.05
18.136,-1.015
18.14,-1.655
18.144,-1.92
18.148,-1.895
18.152,-1.77
18.156,-1.58
18.16,-1.27
18.164,-0.925
18.168,-0.595
18.172,-0.4
18.176,-0.315
18.18,-0.285
18.184,-0.28
18.188,-0.315
18.192,-0.34
18.196,-0.33
18.2,-0.32
18.204,-0.31
18.208,-0.285
18.212,-0.26
18.216,-0.245
18.22,-0.25
18.224,-0.295
18.228,-0.305
18.232,-0.34
18.236,-0.36
18.24,-0.38
18.244,-0.4
18.248,-0.4
18.252,-0.385
18.256,-0.39
18.26,-0.4
18.264,-0.405
18.268,-0.4
18.272,-0.41
18.276,-0.435
18.28,-0.465
18.284,-0.48
18.288,-0.5
18.292,-0.5
18.296,-0.515
18.3,-0.515
18.304,-0.52
18.308,-0.54
18.312,-0.565
18.316,-0.575
18.32,-0.6
18.324,-0.62
18.328,-0.665
18.332,-0.68
18.336,-0.7
18.34,-0.7
18.344,-0.695
18.348,-0.725
18.352,-0.735
18.356,-0.76
18.36,-0.795
18.364,-0.79
18.368,-0.795
18.372,-0.805
18.376,-0.77
18.38,-0.765
18.384,-0.745
18.388,-0.7
18.392,-0.655
18.396,-0.62
18.4,-0.58
18.404,-0.545
18.408,-0.51
18.412,-0.465
18.416,-0.415
18.42,-0.37
18.424,-0.35
18.428,-0.29
18.432,-0.28
18.436,-0.24
18.44,-0.245
18.444,-0.23
18.448,-0.2
18.452,-0.205
18.456,-0.23
18.46,-0.245
18.464,-0.265
18.468,-0.29
18.472,-0.3
18.476,-0.305
18.48,-0.315
18.484,-0.3
18.488,-0.305
18.492,-0.31
18.496,-0.3
18.5,-0.32
18.504,-0.33
18.508,-0.345
18.512,-0.355
18.516,-0.365
18.52,-0.355
18.524,-0.345
18.528,-0.355
18.532,-0.315
18.536,-0.345
18.54,-0.345
18.544,-0.36
18.548,-0.37
18.552,-0.365
18.556,-0.32
18.56,-0.255
18.564,-0.24
18.568,-0.22
18.572,-0.195
18.576,-0.2
18.58,-0.21
18.584,-0.21
18.588,-0.215
18.592,-0.225
18.596,-0.25
18.6,-0.24
18.604,-0.25
18.608,-0.23
18.612,-0.21
18.616,-0.195
18.62,-0.17
18.624,-0.17
18.628,-0.17
18.632,-0.145
18.636,-0.135
18.64,-0.12
18.644,-0.065
18.648,0.0
18.652,0.07
18.656,0.14
18.66,0.155
18.664,0.145
18.668,0.13
18.672,0.085
18.676,0.06
18.68,0.03
18.684,-0.04
18.688,-0.085
18.692,-0.145
18.696,-0.205
18.7,-0.215
18.704,-0.23
18.708,-0.26
18.712,-0.26
18.716,-0.275
18.72,-0.275
18.724,-0.285
18.728,-0.31
18.732,-0.285
18.736,-0.29
18.74,-0.225
18.744,-0.125
18.748,-0.045
18.752,0.065
18.756,0.345
18.76,0.625
18.764,0.83
18.768,0.98
18.772,1.065
18.776,0.715
18.78,-0.16
18.784,-1.0
18.788,-1.51
18.792,-1.65
18.796,-1.55
18.8,-1.31
18.804,-1.02
18.808,-0.74
18.812,-0.565
18.816,-0.475
18.82,-0.425
18.824,-0.375
18.828,-0.355
18.832,-0.34
18.836,-0.325
18.84,-0.305
18.844,-0.305
18.848,-0.32
18.852,-0.31
18.856,-0.32
18.86,-0.34
18.864,-0.345
18.868,-0.355
18.872,-0.33
18.876,-0.33
18.88,-0.32
18.884,-0.31
18.888,-0.32
18.892,-0.34
18.896,-0.35
18.9,-0.33
18.904,-0.355
18.908,-0.37
18.912,-0.365
18.916,-0.385
18.92,-0.4
18.924,-0.37
18.928,-0.395
18.932,-0.395
18.936,-0.4
18.94,-0.42
18.944,-0.46
18.948,-0.485
18.952,-0.505
18.956,-0.55
18.96,-0.55
18.964,-0.55
18.968,-0.575
18.972,-0.565
18.976,-0.565
18.98,-0.6
18.984,-0.63
18.988,-0.685
18.992,-0.7
18.996,-0.705
19.0,-0.72
19.004,-0.74
19.008,-0.75
19.012,-0.745
19.016,-0.745
19.02,-0.755
19.024,-0.74
19.028,-0.785
19.032,-0.8
19.036,-0.79
19.04,-0.785
19.044,-0.77
19.048,-0.74
19.052,-0.68
19.056,-0.64
19.06,-0.605
19.064,-0.54
19.068,-0.48
19.072,-0.425
19.076,-0.39
19.08,-0.34
19.084,-0.315
19.088,-0.25
19.092,-0.225
19.096,-0.19
19.1,-0.14
19.104,-0.115
19.108,-0.085
19.112,-0.095
19.116,-0.085
19.12,-0.075
19.124,-0.08
19.128,-0.085
19.132,-0.075
19.136,-0.08
19.14,-0.08
19.144,-0.05
19.148,-0.075
19.152,-0.065
19.156,-0.07
19.16,-0.065
19.164,-0.08
19.168,-0.09
19.172,-0.1
19.176,-0.1
19.18,-0.09
19.184,-0.1
19.188,-0.105
19.192,-0.09
19.196,-0.09
19.2,-0.09
19.204,-0.105
19.208,-0.14
19.212,-0.125
19.216,-0.125
19.22,-0.135
19.224,-0.145
19.228,-0.155
19.232,-0.125
19.236,-0.13
19.24,-0.105
19.244,-0.13
19.248,-0.15
19.252,-0.145
19.256,-0.15
19.26,-0.18
19.264,-0.185
19.268,-0.17
19.272,-0.18
19.276,-0.16
19.28,-0.155
19.284,-0.155
19.288,-0.17
19.292,-0.15
19.296,-0.175
19.3,-0.175
19.304,-0.185
19.308,-0.19
19.312,-0.185
19.316,-0.17
19.32,-0.17
19.324,-0.16
19.328,-0.16
19.332,-0.155
19.336,-0.16
19.34,-0.18
19.344,-0.215
19.348,-0.215
19.352,-0.215
19.356,-0.19
19.36,-0.19
19.364,-0.185
19.368,-0.195
19.372,-0.19
19.376,-0.18
19.38,-0.185
19.384,-0.19
19.388,-0.205
19.392,-0.21
19.396,-0.22
19.4,-0.21
19.404,-0.2
19.408,-0.175
19.412,-0.17
19.416,-0.17
19.42,-0.19
19.424,-0.2
19.428,-0.22
19.432,-0.22
19.436,-0.23
19.44,-0.22
19.444,-0.215
19.448,-0.225
19.452,-0.21
19.456,-0.19
19.46,-0.185
19.464,-0.195
19.468,-0.195
19.472,-0.2
19.476,-0.205
19.48,-0.22
19.484,-0.22
19.488,-0.23
19.492,-0.225
19.496,-0.205
19.5,-0.205
19.504,-0.215
19.508,-0.225
19.512,-0.22
19.516,-0.2
19.52,-0.22
19.524,-0.24
19.528,-0.22
19.532,-0.24
19.536,-0.225
19.54,-0.24
19.544,-0.205
19.548,-0.2
19.552,-0.2
19.556,-0.21
19.56,-0.2
19.564,-0.2
19.568,-0.18
19.572,-0.16
19.576,-0.1
19.58,-0.095
19.584,-0.105
19.588,-0.08
19.592,-0.06
19.596,-0.04
19.6,-0.005
19.604,-0.025
19.608,-0.02
19.612,0.01
19.616,0.0
19.62,-0.045
19.624,-0.055
19.628,-0.085
19.632,-0.115
19.636,-0.16
19.64,-0.19
19.644,-0.21
19.648,-0.225
19.652,-0.25
19.656,-0.3
19.66,-0.3
19.664,-0.26
19.668,-0.275
19.672,-0.24
19.676,-0.18
19.68,-0.125
19.684,-0.055
19.688,0.135
19.692,0.44
19.696,0.705
19.7,0.905
19.704,1.08
19.708,1.07
19.712,0.6
19.716,-0.31
19.72,-1.1
19.724,-1.515
19.728,-1.59
19.732,-1.47
19.736,-1.23
19.74,-0.93
19.744,-0.705
19.748,-0.515
19.752,-0.43
19.756,-0.37
19.76,-0.345
19.764,-0.3
19.768,-0.295
19.772,-0.3
19.776,-0.28
19.78,-0.29
19.784,-0.33
19.788,-0.31
19.792,-0.325
19.796,-0.33
19.8,-0.33
19.804,-0.335
19.808,-0.33
19.812,-0.32
19.816,-0.305
19.82,-0.315
19.824,-0.32
19.828,-0.35
19.832,-0.36
19.836,-0.375
19.84,-0.39
19.844,-0.37
19.848,-0.375
19.852,-0.38
19.856,-0.345
19.86,-0.355
19.864,-0.355
19.868,-0.38
19.872,-0.395
19.876,-0.43
19.88,-0.45
19.884,-0.47
19.888,-0.495
19.892,-0.515
19.896,-0.515
19.9,-0.525
19.904,-0.52
19.908,-0.555
19.912,-0.555
19.916,-0.56
19.92,-0.595
19.924,-0.61
19.928,-0.64
19.932,-0.655
19.936,-0.67
19.94,-0.67
19.944,-0.67
19.948,-0.68
19.952,-0.685
19.956,-0.695
19.96,-0.73
19.964,-0.725
19.968,-0.74
19.972,-0.76
19.976,-0.78
19.98,-0.78
19.984,-0.75
19.988,-0.73
19.992,-0.735
19.996,-0.705
20.0,-0.695
20.004,-0.65
20.008,-0.635
20.012,-0.61
20.016,-0.555
20.02,-0.5
20.024,-0.46
20.028,-0.42
20.032,-0.34
20.036,-0.295
20.04,-0.255
20.044,-0.23
20.048,-0.21
20.052,-0.19
20.056,-0.165
20.06,-0.135
20.064,-0.135
20.068,-0.12
20.072,-0.1
20.076,-0.095
20.08,-0.07
20.084,-0.09
20.088,-0.09
20.092,-0.07
20.096,-0.05
20.1,-0.085
20.104,-0.105
20.108,-0.095
20.112,-0.09
20.116,-0.1
20.12,-0.075
20.124,-0.065
20.128,-0.06
20.132,-0.09
20.136,-0.09
20.14,-0.115
20.144,-0.12
20.148,-0.125
20.152,-0.12
20.156,-0.12
20.16,-0.11
20.164,-0.11
20.168,-0.12
20.172,-0.085
20.176,-0.09
20.18,-0.11
20.184,-0.115
20.188,-0.155
20.192,-0.15
20.196,-0.15
20.2,-0.14
20.204,-0.165
20.208,-0.13
20.212,-0.145
20.216,-0.155
20.22,-0.16
20.224,-0.15
20.228,-0.185
20.232,-0.165
20.236,-0.16
20.24,-0.175
20.244,-0.175
20.248,-0.155
20.252,-0.15
20.256,-0.13
20.26,-0.11
20.264,-0.125
20.268,-0.125
20.272,-0.12
20.276,-0.12
20.28,-0.115
20.284,-0.165
20.288,-0.16
20.292,-0.18
20.296,-0.15
20.3,-0.13
20.304,-0.165
20.308,-0.185
20.312,-0.2
20.316,-0.15
20.32,-0.13
20.324,-0.13
20.328,-0.16
20.332,-0.19
20.336,-0.195
20.34,-0.165
20.344,-0.11
20.348,-0.11
20.352,-0.09
20.356,-0.03
20.36,-0.04
20.364,-0.04
20.368,-0.08
20.372,-0.065
20.376,-0.07
20.38,-0.06
20.384,-0.04
20.388,-0.005
20.392,-0.01
20.396,-0.04
20.4,-0.055
20.404,-0.06
20.408,-0.05
20.412,-0.05
20.416,-0.07
20.42,-0.09
20.424,-0.045
20.428,-0.03
20.432,-0.04
20.436,-0.025
20.44,0.02
20.444,0.02
20.448,0.04
20.452,0.05
20.456,0.055
20.46,0.04
20.464,0.06
20.468,0.05
20.472,0.045
20.476,0.05
20.48,0.08
20.484,0.085
20.488,0.055
20.492,0.025
20.496,0.0
20.5,0.0
20.504,-0.04
20.508,-0.125
20.512,-0.29
20.516,-0.36
20.52,-0.38
20.524,-0.37
20.528,-0.345
20.532,-0.335
20.536,-0.31
20.54,-0.31
20.544,-0.345
20.548,-0.32
20.552,-0.27
20.556,-0.095
20.56,0.245
20.564,0.645
20.568,0.9
20.572,1.095
20.576,1.155
20.58,0.8
20.584,-0.06
20.588,-0.945
20.592,-1.48
20.596,-1.7
20.6,-1.665
20.604,-1.545
20.608,-1.3
20.612,-0.985
20.616,-0.71
20.62,-0.55
20.624,-0.51
20.628,-0.495
20.632,-0.47
20.636,-0.465
20.64,-0.435
20.644,-0.43
20.648,-0.43
20.652,-0.42
20.656,-0.42
20.66,-0.415
20.664,-0.4
20.668,-0.435
20.672,-0.435
20.676,-0.43
20.68,-0.44
20.684,-0.48
20.688,-0.49
20.692,-0.46
20.696,-0.465
20.7,-0.435
20.704,-0.45
20.708,-0.465
20.712,-0.47
20.716,-0.48
20.72,-0.53
20.724,-0.545
20.728,-0.545
20.732,-0.525
20.736,-0.51
20.74,-0.525
20.744,-0.54
20.748,-0.58
20.752,-0.595
20.756,-0.605
20.76,-0.64
20.764,-0.68
20.768,-0.69
20.772,-0.72
20.776,-0.74
20.78,-0.77
20.784,-0.79
20.788,-0.825
20.792,-0.86
20.796,-0.895
20.8,-0.885
20.804,-0.905
20.808,-0.94
20.812,-0.995
20.816,-1.0
20.82,-1.01
20.824,-1.035
20.828,-1.065
20.832,-1.075
20.836,-1.08
20.84,-1.085
20.844,-1.1
20.848,-1.095
20.852,-1.1
20.856,-1.09
20.86,-1.09
20.864,-1.06
20.868,-1.02
20.872,-0.975
20.876,-0.9
20.88,-0.845
20.884,-0.78
20.888,-0.75
20.892,-0.71
20.896,-0.665
20.9,-0.63
20.904,-0.6
20.908,-0.55
20.912,-0.51
20.916,-0.495
20.92,-0.44
20.924,-0.39
20.928,-0.355
20.932,-0.34
20.936,-0.32
20.94,-0.33
20.944,-0.33
20.948,-0.31
20.952,-0.315
20.956,-0.305
20.96,-0.275
20.964,-0.255
20.968,-0.24
20.972,-0.22
20.976,-0.24
20.98,-0.275
20.984,-0.26
20.988,-0.26
20.992,-0.265
20.996,-0.255
21.0,-0.275
21.004,-0.285
21.008,-0.285
21.012,-0.275
21.016,-0.275
21.02,-0.25
21.024,-0.25
21.028,-0.255
21.032,-0.285
21.036,-0.31
21.04,-0.295
21.044,-0.305
21.048,-0.29
21.052,-0.28
21.056,-0.28
21.06,-0.3
21.064,-0.29
21.068,-0.285
21.072,-0.3
21.076,-0.325
21.08,-0.345
21.084,-0.33
21.088,-0.335
21.092,-0.32
21.096,-0.315
21.1,-0.285
21.104,-0.28
21.108,-0.29
21.112,-0.315
21.116,-0.32
21.12,-0.355
21.124,-0.335
21.128,-0.33
21.132,-0.33
21.136,-0.33
21.14,-0.32
21.144,-0.315
21.148,-0.31
21.152,-0.305
21.156,-0.315
21.16,-0.33
21.164,-0.335
21.168,-0.34
21.172,-0.335
21.176,-0.33
21.18,-0.33
21.184,-0.31
21.188,-0.305
21.192,-0.31
21.196,-0.3
21.2,-0.3
21.204,-0.315
21.208,-0.36
21.212,-0.365
21.216,-0.35
21.22,-0.36
21.224,-0.32
21.228,-0.305
21.232,-0.295
21.236,-0.31
21.24,-0.3
21.244,-0.315
21.248,-0.32
21.252,-0.35
21.256,-0.355
21.26,-0.345
21.264,-0.34
21.268,-0.315
21.272,-0.315
21.276,-0.285
21.28,-0.29
21.284,-0.285
21.288,-0.26
21.292,-0.225
21.296,-0.24
21.3,-0.22
21.304,-0.21
21.308,-0.18
21.312,-0.165
21.316,-0.125
21.32,-0.135
21.324,-0.14
21.328,-0.125
21.332,-0.13
21.336,-0.17
21.34,-0.195
21.344,-0.22
21.348,-0.25
21.352,-0.26
21.356,-0.3
21.36,-0.32
21.364,-0.32
21.368,-0.305
21.372,-0.32
21.376,-0.345
21.38,-0.35
21.384,-0.36
21.388,-0.36
21.392,-0.34
21.396,-0.29
21.4,-0.2
21.404,-0.065
21.408,0.155
21.412,0.475
21.416,0.745
21.42,0.92
21.424,0.985
21.428,0.765
21.432,0.025
21.436,-0.87
21.44,-1.475
21.444,-1.69
21.448,-1.67
21.452,-1.525
21.456,-1.325
21.46,-1.045
21.464,-0.825
21.468,-0.65
21.472,-0.555
21.476,-0.51
21.48,-0.495
21.484,-0.475
21.488,-0.475
21.492,-0.445
21.496,-0.425
21.5,-0.42
21.504,-0.43
21.508,-0.405
21.512,-0.43
21.516,-0.45
21.52,-0.43
21.524,-0.43
21.528,-0.455
21.532,-0.43
21.536,-0.47
21.54,-0.46
21.544,-0.445
21.548,-0.45
21.552,-0.455
21.556,-0.455
21.56,-0.48
21.564,-0.525
21.568,-0.545
21.572,-0.53
21.576,-0.51
21.58,-0.535
21.584,-0.52
21.588,-0.515
21.592,-0.53
21.596,-0.565
21.6,-0.57
21.604,-0.61
21.608,-0.655
21.612,-0.67
21.616,-0.715
21.62,-0.725
21.624,-0.745
21.628,-0.755
21.632,-0.775
21.636,-0.79
21.64,-0.805
21.644,-0.86
21.648,-0.905
21.652,-0.945
21.656,-0.97
21.66,-0.98
21.664,-1.01
21.668,-1.01
21.672,-1.03
21.676,-1.04
21.68,-1.06
21.684,-1.09
21.688,-1.08
21.692,-1.125
21.696,-1.115
21.7,-1.11
21.704,-1.13
21.708,-1.09
21.712,-1.07
21.716,-1.04
21.72,-0.98
21.724,-0.93
21.728,-0.87
21.732,-0.835
21.736,-0.79
21.74,-0.765
21.744,-0.715
21.748,-0.64
21.752,-0.6
21.756,-0.56
21.76,-0.52
21.764,-0.495
21.768,-0.46
21.772,-0.425
21.776,-0.41
21.78,-0.4
21.784,-0.395
21.788,-0.38
21.792,-0.385
21.796,-0.365
21.8,-0.34
21.804,-0.32
21.808,-0.33
21.812,-0.315
21.816,-0.3
21.82,-0.305
21.824,-0.3
21.828,-0.325
21.832,-0.315
21.836,-0.31
21.84,-0.32
21.844,-0.315
21.848,-0.31
21.852,-0.295
21.856,-0.3
21.86,-0.295
21.864,-0.305
21.868,-0.295
21.872,-0.31
21.876,-0.32
21.88,-0.315
21.884,-0.315
21.888,-0.33
21.892,-0.32
21.896,-0.325
21.9,-0.315
21.904,-0.32
21.908,-0.325
21.912,-0.345
21.916,-0.345
21.92,-0.345
21.924,-0.35
21.928,-0.345
21.932,-0.345
21.936,-0.32
21.94,-0.305
21.944,-0.32
21.948,-0.3
21.952,-0.315
21.956,-0.325
21.96,-0.3
21.964,-0.235
21.968,-0.16
21.972,-0.155
21.976,-0.145
21.98,-0.16
21.984,-0.13
21.988,-0.125
21.992,-0.145
21.996,-0.135
22.0,-0.12
22.004,-0.14
22.008,-0.14
22.012,-0.135
22.016,-0.14
22.02,-0.135
22.024,-0.12
22.028,-0.12
22.032,-0.105
22.036,-0.125
22.04,-0.12
22.044,-0.13
22.048,-0.14
22.052,-0.15
22.056,-0.15
22.06,-0.13
22.064,-0.125
22.068,-0.115
22.072,-0.11
22.076,-0.095
22.08,-0.11
22.084,-0.13
22.088,-0.12
22.092,-0.14
22.096,-0.17
22.1,-0.155
22.104,-0.155
22.108,-0.145
22.112,-0.135
22.116,-0.11
22.12,-0.11
22.124,-0.115
22.128,-0.09
22.132,-0.1
22.136,-0.085
22.14,-0.095
22.144,-0.07
22.148,-0.04
22.152,-0.035
22.156,0.0
22.16,0.025
22.164,0.045
22.168,0.06
22.172,0.06
22.176,0.05
22.18,0.06
22.184,0.02
22.188,0.025
22.192,0.035
22.196,0.015
22.2,0.005
22.204,0.005
22.208,0.0
22.212,-0.045
22.216,-0.08
22.22,-0.1
22.224,-0.125
22.228,-0.155
22.232,-0.17
22.236,-0.185
22.24,-0.175
22.244,-0.17
22.248,-0.14
22.252,-0.11
22.256,-0.04
22.26,0.035
22.264,0.15
22.268,0.405
22.272,0.69
22.276,0.885
22.28,1.015
22.284,1.07
22.288,0.88
22.292,0.205
22.296,-0.695
22.3,-1.3
22.304,-1.52
22.308,-1.51
22.312,-1.305
22.316,-1.02
22.32,-0.775
22.324,-0.54
22.328,-0.395
22.332,-0.31
22.336,-0.245
22.34,-0.225
22.344,-0.21
22.348,-0.195
22.352,-0.19
22.356,-0.19
22.36,-0.19
22.364,-0.21
22.368,-0.22
22.372,-0.195
22.376,-0.21
22.38,-0.22
22.384,-0.2
22.388,-0.195
22.392,-0.185
22.396,-0.205
22.4,-0.205
22.404,-0.215
22.408,-0.255
22.412,-0.265
22.416,-0.28
22.42,-0.28
22.424,-0.275
22.428,-0.265
22.432,-0.275
22.436,-0.27
22.44,-0.285
22.444,-0.305
22.448,-0.32
22.452,-0.32
22.456,-0.385
22.46,-0.38
22.464,-0.41
22.468,-0.405
22.472,-0.42
22.476,-0.43
22.48,-0.45
22.484,-0.47
22.488,-0.475
22.492,-0.54
22.496,-0.59
22.5,-0.635
22.504,-0.65
22.508,-0.665
22.512,-0.685
22.516,-0.695
22.52,-0.725
22.524,-0.74
22.528,-0.755
22.532,-0.785
22.536,-0.82
22.54,-0.83
22.544,-0.865
22.548,-0.885
22.552,-0.905
22.556,-0.925
22.56,-0.925
22.564,-0.9
22.568,-0.885
22.572,-0.89
22.576,-0.85
22.58,-0.82
22.584,-0.785
22.588,-0.76
22.592,-0.71
22.596,-0.66
22.6,-0.61
22.604,-0.525
22.608,-0.46
22.612,-0.4
22.616,-0.345
22.62,-0.305
22.624,-0.265
22.628,-0.21
22.632,-0.195
22.636,-0.18
22.64,-0.18
22.644,-0.145
22.648,-0.1
22.652,-0.095
22.656,-0.08
22.66,-0.07
22.664,-0.07
22.668,-0.07
22.672,-0.09
22.676,-0.08
22.68,-0.105
22.684,-0.085
22.688,-0.09
22.692,-0.1
22.696,-0.1
22.7,-0.09
22.704,-0.09
22.708,-0.08
22.712,-0.08
22.716,-0.085
22.72,-0.1
22.724,-0.125
22.728,-0.14
22.732,-0.135
22.736,-0.12
22.74,-0.125
22.744,-0.11
22.748,-0.11
22.752,-0.115
22.756,-0.115
22.76,-0.13
22.764,-0.135
22.768,-0.155
22.772,-0.145
22.776,-0.175
22.78,-0.16
22.784,-0.13
22.788,-0.145
22.792,-0.14
22.796,-0.135
22.8,-0.145
22.804,-0.15
22.808,-0.17
22.812,-0.17
22.816,-0.18
22.82,-0.17
22.824,-0.195
22.828,-0.17
22.832,-0.18
22.836,-0.18
22.84,-0.16
22.844,-0.145
22.848,-0.135
22.852,-0.16
22.856,-0.165
22.86,-0.185
22.864,-0.205
22.868,-0.195
22.872,-0.205
22.876,-0.2
22.88,-0.155
22.884,-0.165
22.888,-0.165
22.892,-0.17
22.896,-0.16
22.9,-0.185
22.904,-0.19
22.908,-0.19
22.912,-0.195
22.916,-0.175
22.92,-0.16
22.924,-0.16
22.928,-0.16
22.932,-0.175
22.936,-0.16
22.94,-0.16
22.944,-0.18
22.948,-0.18
22.952,-0.185
22.956,-0.17
22.96,-0.18
22.964,-0.155
22.968,-0.16
22.972,-0.125
22.976,-0.16
22.98,-0.13
22.984,-0.145
22.988,-0.14
22.992,-0.15
22.996,-0.15
23.0,-0.15
23.004,-0.105
23.008,-0.075
23.012,-0.045
23.016,0.0
23.02,0.015
23.024,0.02
23.028,0.025
23.032,0.015
23.036,-0.01
23.04,-0.025
23.044,-0.025
23.048,0.0
23.052,-0.02
23.056,-0.06
23.06,-0.07
23.064,-0.085
23.068,-0.13
23.072,-0.16
23.076,-0.185
23.08,-0.19
23.084,-0.205
23.088,-0.22
23.092,-0.225
23.096,-0.22
23.1,-0.205
23.104,-0.18
23.108,-0.135
23.112,-0.095
23.116,-0.025
23.12,0.105
23.124,0.36
23.128,0.67
23.132,0.875
23.136,1.035
23.14,1.14
23.144,0.965
23.148,0.29
23.152,-0.64
23.156,-1.275
23.16,-1.525
23.164,-1.52
23.168,-1.335
23.172,-1.075
23.176,-0.785
23.18,-0.565
23.184,-0.41
23.188,-0.34
23.192,-0.29
23.196,-0.25
23.2,-0.24
23.204,-0.24
23.208,-0.225
23.212,-0.235
23.216,-0.25
23.22,-0.26
23.224,-0.265
23.228,-0.26
23.232,-0.25
23.236,-0.25
23.24,-0.225
23.244,-0.22
23.248,-0.235
23.252,-0.235
23.256,-0.25
23.26,-0.26
23.264,-0.27
23.268,-0.285
23.272,-0.3
23.276,-0.295
23.28,-0.295
23.284,-0.295
23.288,-0.295
23.292,-0.3
23.296,-0.325
23.3,-0.32
23.304,-0.35
23.308,-0.395
23.312,-0.385
23.316,-0.4
23.32,-0.385
23.324,-0.415
23.328,-0.41
23.332,-0.44
23.336,-0.46
23.34,-0.47
23.344,-0.48
23.348,-0.53
23.352,-0.56
23.356,-0.62
23.36,-0.625
23.364,-0.64
23.368,-0.675
23.372,-0.66
23.376,-0.67
23.38,-0.695
23.384,-0.73
23.388,-0.77
23.392,-0.795
23.396,-0.835
23.4,-0.845
23.404,-0.86
23.408,-0.865
23.412,-0.865
23.416,-0.845
23.42,-0.83
23.424,-0.815
23.428,-0.775
23.432,-0.74
23.436,-0.735
23.44,-0.71
23.444,-0.66
23.448,-0.615
23.452,-0.515
23.456,-0.46
23.46,-0.4
23.464,-0.35
23.468,-0.27
23.472,-0.225
23.476,-0.185
23.48,-0.155
23.484,-0.14
23.488,-0.125
23.492,-0.115
23.496,-0.095
23.5,-0.08
23.504,-0.055
23.508,-0.04
23.512,-0.04
23.516,-0.04
23.52,-0.03
23.524,-0.055
23.528,-0.065
23.532,-0.07
23.536,-0.07
23.54,-0.09
23.544,-0.075
23.548,-0.075
23.552,-0.065
23.556,-0.055
23.56,-0.06
23.564,-0.065
23.568,-0.045
23.572,-0.08
23.576,-0.075
23.58,-0.095
23.584,-0.1
23.588,-0.095
23.592,-0.08
23.596,-0.06
23.6,-0.065
23.604,-0.08
23.608,-0.1
23.612,-0.12
23.616,-0.11
23.62,-0.13
23.624,-0.13
23.628,-0.14
23.632,-0.14
23.636,-0.13
23.64,-0.125
23.644,-0.125
23.648,-0.115
23.652,-0.12
23.656,-0.12
23.66,-0.16
23.664,-0.155
23.668,-0.155
23.672,-0.145
23.676,-0.14
23.68,-0.145
23.684,-0.125
23.688,-0.135
23.692,-0.125
23.696,-0.105
23.7,-0.115
23.704,-0.13
23.708,-0.14
23.712,-0.175
23.716,-0.16
23.72,-0.16
23.724,-0.16
23.728,-0.16
23.732,-0.14
23.736,-0.125
23.74,-0.15
23.744,-0.13
23.748,-0.155
23.752,-0.17
23.756,-0.175
23.76,-0.17
23.764,-0.155
23.768,-0.155
23.772,-0.15
23.776,-0.14
23.78,-0.145
23.784,-0.15
23.788,-0.15
23.792,-0.13
23.796,-0.155
23.8,-0.155
23.804,-0.16
23.808,-0.155
23.812,-0.16
23.816,-0.155
23.82,-0.125
23.824,-0.105
23.828,-0.105
23.832,-0.135
23.836,-0.125
23.84,-0.105
23.844,-0.08
23.848,-0.04
23.852,-0.02
23.856,-0.055
23.86,-0.03
23.864,-0.005
23.868,0.0
23.872,0.02
23.876,0.02
23.88,0.015
23.884,0.03
23.888,0.0
23.892,-0.04
23.896,-0.06
23.9,-0.08
23.904,-0.1
23.908,-0.14
23.912,-0.14
23.916,-0.165
23.92,-0.18
23.924,-0.195
23.928,-0.21
23.932,-0.2
23.936,-0.21
23.94,-0.195
23.944,-0.135
23.948,-0.06
23.952,0.0
23.956,0.17
23.96,0.45
23.964,0.81
23.968,1.07
23.972,1.23
23.976,1.28
23.98,0.87
23.984,0.0
23.988,-0.84
23.992,-1.325
23.996,-1.455
24.0,-1.36
24.004,-1.21
24.008,-1.0
24.012,-0.74
24.016,-0.545
24.02,-0.405
24.024,-0.315
24.028,-0.265
24.032,-0.24
24.036,-0.22
24.04,-0.215
24.044,-0.195
24.048,-0.19
24.052,-0.2
24.056,-0.2
24.06,-0.22
24.064,-0.215
24.068,-0.22
24.072,-0.26
24.076,-0.295
24.08,-0.28
24.084,-0.285
24.088,-0.235
24.092,-0.215
24.096,-0.24
24.1,-0.265
24.104,-0.275
24.108,-0.305
24.112,-0.315
24.116,-0.315
24.12,-0.35
24.124,-0.35
24.128,-0.36
24.132,-0.36
24.136,-0.375
24.14,-0.425
24.144,-0.41
24.148,-0.44
24.152,-0.485
24.156,-0.53
24.16,-0.565
24.164,-0.585
24.168,-0.595
24.172,-0.595
24.176,-0.635
24.18,-0.65
24.184,-0.705
24.188,-0.75
24.192,-0.78
24.196,-0.82
24.2,-0.85
24.204,-0.91
24.208,-0.895
24.212,-0.915
24.216,-0.935
24.22,-0.955
24.224,-1.01
24.228,-1.06
24.232,-1.055
24.236,-1.06
24.24,-1.04
24.244,-1.065
24.248,-1.045
24.252,-1.06
24.256,-0.98
24.26,-0.955
24.264,-0.885
24.268,-0.835
24.272,-0.75
24.276,-0.68
24.28,-0.66
24.284,-0.625
24.288,-0.605
24.292,-0.555
24.296,-0.52
24.3,-0.455
24.304,-0.43
24.308,-0.42
24.312,-0.405
24.316,-0.385
24.32,-0.345
24.324,-0.365
24.328,-0.41
24.332,-0.395
24.336,-0.39
24.34,-0.39
24.344,-0.39
24.348,-0.365
24.352,-0.355
24.356,-0.32
24.36,-0.34
24.364,-0.335
24.368,-0.345
24.372,-0.375
24.376,-0.385
24.38,-0.4
24.384,-0.385
24.388,-0.375
24.392,-0.395
24.396,-0.405
24.4,-0.355
24.404,-0.385
24.408,-0.37
24.412,-0.405
24.416,-0.395
24.42,-0.405
24.424,-0.42
24.428,-0.435
24.432,-0.425
24.436,-0.42
24.44,-0.43
24.444,-0.405
24.448,-0.4
24.452,-0.415
24.456,-0.41
24.46,-0.435
24.464,-0.445
24.468,-0.43
24.472,-0.425
24.476,-0.425
24.48,-0.39
24.484,-0.335
24.488,-0.2
24.492,0.085
24.496,0.39
24.5,0.63
24.504,0.81
24.508,0.88
24.512,0.575
24.516,-0.255
24.52,-1.235
24.524,-1.78
24.528,-1.87
24.532,-1.7
24.536,-1.375
24.54,-1.04
24.544,-0.76
24.548,-0.615
24.552,-0.525
24.556,-0.465
24.56,-0.45
24.564,-0.44
24.568,-0.42
24.572,-0.405
24.576,-0.42
24.58,-0.415
24.584,-0.41
24.588,-0.375
24.592,-0.365
24.596,-0.39
24.6,-0.375
24.604,-0.39
24.608,-0.42
24.612,-0.435
24.616,-0.435
24.62,-0.455
24.624,-0.49
24.628,-0.5
24.632,-0.5
24.636,-0.52
24.64,-0.54
24.644,-0.575
24.648,-0.585
24.652,-0.58
24.656,-0.575
24.66,-0.605
24.664,-0.6
24.668,-0.585
24.672,-0.585
24.676,-0.615
24.68,-0.63
24.684,-0.665
24.688,-0.69
24.692,-0.71
24.696,-0.735
24.7,-0.75
24.704,-0.785
24.708,-0.795
24.712,-0.825
24.716,-0.83
24.72,-0.85
24.724,-0.875
24.728,-0.935
24.732,-0.95
24.736,-1.01
24.74,-1.025
24.744,-1.03
24.748,-1.065
24.752,-1.085
24.756,-1.045
24.76,-1.015
24.764,-0.985
24.768,-0.93
24.772,-0.89
24.776,-0.825
24.78,-0.8
24.784,-0.73
24.788,-0.605
24.792,-0.505
24.796,-0.43
24.8,-0.36
24.804,-0.375
24.808,-0.36
24.812,-0.345
24.816,-0.325
24.82,-0.315
24.824,-0.29
24.828,-0.29
24.832,-0.28
24.836,-0.285
24.84,-0.28
24.844,-0.26
24.848,-0.285
24.852,-0.3
24.856,-0.325
24.86,-0.365
24.864,-0.375
24.868,-0.405
24.872,-0.415
24.876,-0.45
24.88,-0.425
24.884,-0.445
24.888,-0.42
24.892,-0.435
24.896,-0.455
24.9,-0.475
24.904,-0.48
24.908,-0.495
24.912,-0.52
24.916,-0.525
24.92,-0.52
24.924,-0.53
24.928,-0.565
24.932,-0.55
24.936,-0.55
24.94,-0.56
24.944,-0.59
24.948,-0.605
24.952,-0.63
24.956,-0.64
24.96,-0.645
24.964,-0.66
24.968,-0.675
24.972,-0.665
24.976,-0.665
24.98,-0.655
24.984,-0.62
24.988,-0.605
24.992,-0.58
24.996,-0.525
25.0,-0.495
25.004,-0.485
25.008,-0.48
25.012,-0.465
25.016,-0.46
25.02,-0.425
25.024,-0.41
25.028,-0.41
25.032,-0.4
25.036,-0.36
25.04,-0.29
25.044,-0.165
25.048,0.07
25.052,0.405
25.056,0.645
25.06,0.795
25.064,0.875
25.068,0.625
25.072,-0.155
25.076,-1.04
25.08,-1.565
25.084,-1.72
25.088,-1.645
25.092,-1.43
25.096,-1.135
25.1,-0.83
25.104,-0.64
25.108,-0.495
25.112,-0.4
25.116,-0.355
25.12,-0.35
25.124,-0.345
25.128,-0.36
25.132,-0.38
25.136,-0.39
25.14,-0.395
25.144,-0.405
25.148,-0.415
25.152,-0.415
25.156,-0.44
25.16,-0.425
25.164,-0.435
25.168,-0.455
25.172,-0.46
25.176,-0.47
25.18,-0.495
25.184,-0.52
25.188,-0.525
25.192,-0.52
25.196,-0.525
25.2,-0.5
25.204,-0.475
25.208,-0.44
25.212,-0.405
25.216,-0.38
25.22,-0.36
25.224,-0.41
25.228,-0.44
25.232,-0.45
25.236,-0.45
25.24,-0.46
25.244,-0.46
25.248,-0.465
25.252,-0.48
25.256,-0.505
25.26,-0.535
25.264,-0.56
25.268,-0.56
25.272,-0.575
25.276,-0.585
25.28,-0.605
25.284,-0.61
25.288,-0.645
25.292,-0.68
25.296,-0.715
25.3,-0.71
25.304,-0.745
25.308,-0.77
25.312,-0.795
25.316,-0.84
25.32,-0.855
25.324,-0.85
25.328,-0.86
25.332,-0.835
25.336,-0.8
25.34,-0.765
25.344,-0.76
25.348,-0.71
25.352,-0.685
25.356,-0.65
25.36,-0.62
25.364,-0.575
25.368,-0.525
25.372,-0.535
25.376,-0.46
25.38,-0.42
25.384,-0.39
25.388,-0.36
25.392,-0.375
25.396,-0.36
25.4,-0.38
25.404,-0.375
25.408,-0.37
25.412,-0.34
25.416,-0.34
25.42,-0.315
25.424,-0.26
25.428,-0.22
25.432,-0.2
25.436,-0.18
25.44,-0.21
25.444,-0.22
25.448,-0.235
25.452,-0.26
25.456,-0.26
25.46,-0.255
25.464,-0.26
25.468,-0.27
25.472,-0.26
25.476,-0.275
25.48,-0.255
25.484,-0.26
25.488,-0.245
25.492,-0.24
25.496,-0.26
25.5,-0.24
25.504,-0.225
25.508,-0.21
25.512,-0.245
25.516,-0.235
25.52,-0.23
25.524,-0.205
25.528,-0.17
25.532,-0.155
25.536,-0.04
25.54,0.105
25.544,0.235
25.548,0.385
25.552,0.545
25.556,0.595
25.56,0.15
25.564,-0.655
25.568,-1.42
25.572,-1.81
25.576,-1.83
25.58,-1.565
25.584,-1.22
25.588,-0.935
25.592,-0.76
25.596,-0.66
25.6,-0.58
25.604,-0.545
25.608,-0.555
25.612,-0.515
25.616,-0.52
25.62,-0.505
25.624,-0.495
25.628,-0.48
25.632,-0.445
25.636,-0.4
25.64,-0.375
25.644,-0.335
25.648,-0.335
25.652,-0.315
25.656,-0.315
25.66,-0.31
25.664,-0.33
25.668,-0.33
25.672,-0.34
25.676,-0.36
25.68,-0.39
25.684,-0.4
25.688,-0.395
25.692,-0.39
25.696,-0.405
25.7,-0.39
25.704,-0.42
25.708,-0.42
25.712,-0.46
25.716,-0.49
25.72,-0.505
25.724,-0.53
25.728,-0.565
25.732,-0.58
25.736,-0.62
25.74,-0.645
25.744,-0.665
25.748,-0.685
25.752,-0.7
25.756,-0.74
25.76,-0.76
25.764,-0.795
25.768,-0.83
25.772,-0.85
25.776,-0.885
25.78,-0.92
25.784,-0.94
25.788,-0.935
25.792,-0.96
25.796,-0.98
25.8,-0.99
25.804,-1.0
25.808,-1.02
25.812,-1.025
25.816,-1.0
25.82,-1.005
25.824,-0.955
25.828,-0.92
25.832,-0.86
25.836,-0.78
25.84,-0.725
25.844,-0.655
25.848,-0.59
25.852,-0.535
25.856,-0.455
25.86,-0.36
25.864,-0.335
25.868,-0.315
25.872,-0.295
25.876,-0.27
25.88,-0.275
25.884,-0.275
25.888,-0.265
25.892,-0.275
25.896,-0.295
25.9,-0.305
25.904,-0.29
25.908,-0.27
25.912,-0.27
25.916,-0.255
25.92,-0.25
25.924,-0.21
25.928,-0.185
25.932,-0.145
25.936,-0.085
25.94,0.03
25.944,0.135
25.948,0.3
25.952,0.52
25.956,0.705
25.96,0.845
25.964,0.965
25.968,0.835
25.972,0.105
25.976,-0.865
25.98,-1.385
25.984,-1.53
25.988,-1.455
25.992,-1.24
25.996,-0.945
26.0,-0.705
26.004,-0.555
26.008,-0.475
26.012,-0.405
26.016,-0.37
26.02,-0.375
26.024,-0.375
26.028,-0.4
26.032,-0.435
26.036,-0.42
26.04,-0.425
26.044,-0.4
26.048,-0.41
26.052,-0.395
26.056,-0.39
26.06,-0.395
26.064,-0.38
26.068,-0.395
26.072,-0.4
26.076,-0.395
26.08,-0.345
26.084,-0.33
26.088,-0.3
26.092,-0.29
26.096,-0.315
26.1,-0.325
26.104,-0.33
26.108,-0.355
26.112,-0.375
26.116,-0.395
26.12,-0.415
26.124,-0.425
26.128,-0.44
26.132,-0.47
26.136,-0.48
26.14,-0.5
26.144,-0.48
26.148,-0.47
26.152,-0.5
26.156,-0.51
26.16,-0.54
26.164,-0.565
26.168,-0.6
26.172,-0.61
26.176,-0.64
26.18,-0.645
26.184,-0.675
26.188,-0.64
26.192,-0.66
26.196,-0.665
26.2,-0.65
26.204,-0.665
26.208,-0.64
26.212,-0.66
26.216,-0.61
26.22,-0.59
26.224,-0.555
26.228,-0.52
26.232,-0.455
26.236,-0.39
26.24,-0.36
26.244,-0.325
26.248,-0.295
26.252,-0.275
26.256,-0.265
26.26,-0.24
26.264,-0.23
26.268,-0.21
26.272,-0.21
26.276,-0.22
26.28,-0.235
26.284,-0.2
26.288,-0.2
26.292,-0.215
26.296,-0.215
26.3,-0.22
26.304,-0.215
26.308,-0.235
26.312,-0.25
26.316,-0.255
26.32,-0.255
26.324,-0.22
26.328,-0.235
26.332,-0.225
26.336,-0.235
26.34,-0.235
26.344,-0.245
26.348,-0.275
26.352,-0.245
26.356,-0.24
26.36,-0.24
26.364,-0.245
26.368,-0.245
26.372,-0.225
26.376,-0.17
26.38,-0.175
26.384,-0.195
26.388,-0.255
26.392,-0.25
26.396,-0.15
26.4,-0.045
26.404,0.09
26.408,0.06
26.412,-0.52
26.416,-1.275
26.42,-1.75
26.424,-1.98
26.428,-2.01
26.432,-1.97
26.436,-1.94
26.44,-1.895
26.444,-1.88
26.448,-1.83
26.452,-1.71
26.456,-1.57
26.46,-1.405
26.464,-1.17
26.468,-0.885
26.472,-0.66
26.476,-0.535
26.48,-0.42
26.484,-0.34
26.488,-0.27
26.492,-0.235
26.496,-0.2
26.5,-0.14
26.504,-0.12
26.508,-0.115
26.512,-0.13
26.516,-0.12
26.52,-0.13
26.524,-0.135
26.528,-0.165
26.532,-0.155
26.536,-0.12
26.54,-0.145
26.544,-0.15
26.548,-0.15
26.552,-0.17
26.556,-0.135
26.56,-0.145
26.564,-0.175
26.568,-0.18
26.572,-0.17
26.576,-0.185
26.58,-0.2
26.584,-0.22
26.588,-0.23
26.592,-0.22
26.596,-0.24
26.6,-0.235
26.604,-0.25
26.608,-0.26
26.612,-0.275
26.616,-0.27
26.62,-0.26
26.624,-0.28
26.628,-0.275
26.632,-0.26
26.636,-0.24
26.64,-0.24
26.644,-0.235
26.648,-0.23
26.652,-0.21
26.656,-0.185
26.66,-0.155
26.664,-0.12
26.668,-0.095
26.672,-0.06
26.676,-0.02
26.68,0.055
26.684,0.095
26.688,0.14
26.692,0.2
26.696,0.205
26.7,0.21
26.704,0.255
26.708,0.28
26.712,0.3
26.716,0.305
26.72,0.32
26.724,0.305
26.728,0.275
26.732,0.225
26.736,0.18
26.74,0.125
26.744,0.075
26.748,0.045
26.752,0.015
26.756,-0.03
26.76,-0.085
26.764,-0.08
26.768,-0.09
26.772,-0.13
26.776,-0.12
26.78,-0.125
26.784,-0.14
26.788,-0.145
26.792,-0.125
26.796,-0.095
26.8,-0.085
26.804,-0.09
26.808,-0.06
26.812,0.075
26.816,0.2
26.82,0.35
26.824,0.36
26.828,-0.15
26.832,-1.05
26.836,-1.69
26.84,-1.945
26.844,-1.96
26.848,-1.94
26.852,-1.865
26.856,-1.82
26.86,-1.82
26.864,-1.795
26.868,-1.655
26.872,-1.505
26.876,-1.36
26.88,-1.125
26.884,-0.845
26.888,-0.615
26.892,-0.445
26.896,-0.31
26.9,-0.175
26.904,-0.13
26.908,-0.105
26.912,-0.105
26.916,-0.105
26.92,-0.07
26.924,-0.06
26.928,-0.045
26.932,-0.02
26.936,-0.04
26.94,-0.01
26.944,0.0
26.948,-0.025
26.952,-0.025
26.956,-0.055
26.96,-0.065
26.964,-0.055
26.968,-0.07
26.972,-0.065
26.976,-0.1
26.98,-0.12
26.984,-0.13
26.988,-0.14
26.992,-0.12
26.996,-0.13
27.0,-0.14
27.004,-0.175
27.008,-0.19
27.012,-0.22
27.016,-0.255
27.02,-0.255
27.024,-0.265
27.028,-0.28
27.032,-0.265
27.036,-0.27
27.04,-0.27
27.044,-0.225
27.048,-0.24
27.052,-0.25
27.056,-0.26
27.06,-0.235
27.064,-0.205
27.068,-0.21
27.072,-0.195
27.076,-0.155
27.08,-0.105
27.084,-0.025
27.088,0.0
27.092,0.02
27.096,0.08
27.1,0.1
27.104,0.13
27.108,0.155
27.112,0.215
27.116,0.215
27.12,0.235
27.124,0.25
27.128,0.245
27.132,0.255
27.136,0.25
27.14,0.235
27.144,0.23
27.148,0.195
27.152,0.14
27.156,0.085
27.16,0.03
27.164,-0.015
27.168,-0.015
27.172,-0.05
27.176,-0.065
27.18,-0.08
27.184,-0.085
27.188,-0.08
27.192,-0.085
27.196,-0.08
27.2,-0.11
27.204,-0.105
27.208,-0.06
27.212,-0.005
27.216,0.085
27.22,0.225
27.224,0.415
27.228,0.6
27.232,0.765
27.236,0.905
27.24,1.06
27.244,1.04
27.248,0.47
27.252,-0.52
27.256,-1.24
27.26,-1.47
27.264,-1.35
27.268,-1.015
27.272,-0.735
27.276,-0.485
27.28,-0.37
27.284,-0.305
27.288,-0.265
27.292,-0.25
27.296,-0.23
27.3,-0.24
27.304,-0.26
27.308,-0.285
27.312,-0.265
27.316,-0.26
27.32,-0.265
27.324,-0.265
27.328,-0.275
27.332,-0.285
27.336,-0.26
27.34,-0.25
27.344,-0.24
27.348,-0.24
27.352,-0.225
27.356,-0.2
27.36,-0.165
27.364,-0.155
27.368,-0.175
27.372,-0.18
27.376,-0.23
27.38,-0.275
27.384,-0.285
27.388,-0.305
27.392,-0.335
27.396,-0.37
27.4,-0.365
27.404,-0.365
27.408,-0.335
27.412,-0.37
27.416,-0.39
27.42,-0.415
27.424,-0.425
27.428,-0.445
27.432,-0.48
27.436,-0.48
27.44,-0.48
27.444,-0.455
27.448,-0.475
27.452,-0.475
27.456,-0.47
27.46,-0.465
27.464,-0.49
27.468,-0.48
27.472,-0.5
27.476,-0.505
27.48,-0.475
27.484,-0.46
27.488,-0.455
27.492,-0.45
27.496,-0.405
27.5,-0.4
27.504,-0.345
27.508,-0.295
27.512,-0.28
27.516,-0.28
27.52,-0.27
27.524,-0.235
27.528,-0.23
27.532,-0.205
27.536,-0.155
27.54,-0.11
27.544,-0.095
27.548,-0.085
27.552,-0.08
27.556,-0.1
27.56,-0.115
27.564,-0.115
27.568,-0.095
27.572,-0.06
27.576,-0.065
27.58,-0.06
27.584,-0.045
27.588,-0.04
27.592,-0.075
27.596,-0.08
27.6,-0.105
27.604,-0.115
27.608,-0.15
27.612,-0.12
27.616,-0.11
27.62,-0.13
27.624,-0.135
27.628,-0.12
27.632,-0.09
27.636,-0.045
27.64,0.035
27.644,0.085
27.648,0.175
27.652,0.34
27.656,0.58
27.66,0.775
27.664,0.895
27.668,0.925
27.672,0.505
27.676,-0.375
27.68,-1.225
27.684,-1.66
27.688,-1.7
27.692,-1.535
27.696,-1.27
27.7,-0.945
27.704,-0.665
27.708,-0.455
27.712,-0.34
27.716,-0.285
27.72,-0.25
27.724,-0.235
27.728,-0.245
27.732,-0.245
27.736,-0.255
27.74,-0.25
27.744,-0.275
27.748,-0.27
27.752,-0.285
27.756,-0.265
27.76,-0.265
27.764,-0.225
27.768,-0.22
27.772,-0.175
27.776,-0.17
27.78,-0.165
27.784,-0.155
27.788,-0.18
27.792,-0.155
27.796,-0.16
27.8,-0.185
27.804,-0.215
27.808,-0.225
27.812,-0.27
27.816,-0.265
27.82,-0.275
27.824,-0.295
27.828,-0.305
27.832,-0.285
27.836,-0.265
27.84,-0.29
27.844,-0.295
27.848,-0.3
27.852,-0.27
27.856,-0.26
27.86,-0.285
27.864,-0.275
27.868,-0.31
27.872,-0.295
27.876,-0.33
27.88,-0.32
27.884,-0.335
27.888,-0.31
27.892,-0.3
27.896,-0.31
27.9,-0.305
27.904,-0.305
27.908,-0.265
27.912,-0.265
27.916,-0.285
27.92,-0.27
27.924,-0.26
27.928,-0.225
27.932,-0.175
27.936,-0.135
27.94,-0.105
27.944,-0.07
27.948,-0.065
27.952,-0.015
27.956,0.0
27.96,0.01
27.964,0.01
27.968,0.0
27.972,0.04
27.976,0.035
27.98,0.055
27.984,0.06
27.988,0.07
27.992,0.08
27.996,0.095
28.0,0.07
28.004,0.04
28.008,0.0
28.012,-0.01
28.016,-0.005
28.02,-0.03
28.024,-0.025
28.028,0.0
28.032,0.045
28.036,0.095
28.04,0.2
28.044,0.37
28.048,0.62
28.052,0.89
28.056,0.945
28.06,0.52
28.064,-0.35
28.068,-1.09
28.072,-1.485
28.076,-1.585
28.08,-1.545
28.084,-1.425
28.088,-1.275
28.092,-1.045
28.096,-0.785
28.1,-0.54
28.104,-0.4
28.108,-0.305
28.112,-0.25
28.116,-0.21
28.12,-0.185
28.124,-0.155
28.128,-0.16
28.132,-0.16
28.136,-0.185
28.14,-0.175
28.144,-0.19
28.148,-0.24
28.152,-0.235
28.156,-0.26
28.16,-0.25
28.164,-0.25
28.168,-0.245
28.172,-0.24
28.176,-0.22
28.18,-0.235
28.184,-0.22
28.188,-0.215
28.192,-0.21
28.196,-0.205
28.2,-0.185
28.204,-0.185
28.208,-0.185
28.212,-0.225
28.216,-0.255
28.22,-0.24
28.224,-0.295
28.228,-0.315
28.232,-0.32
28.236,-0.31
28.24,-0.32
28.244,-0.32
28.248,-0.325
28.252,-0.335
28.256,-0.31
28.26,-0.31
28.264,-0.32
28.268,-0.305
28.272,-0.29
28.276,-0.28
28.28,-0.275
28.284,-0.285
28.288,-0.275
28.292,-0.28
28.296,-0.27
28.3,-0.24
28.304,-0.19
28.308,-0.17
28.312,-0.13
28.316,-0.1
28.32,-0.065
28.324,-0.06
28.328,-0.045
28.332,-0.025
28.336,-0.035
28.34,-0.03
28.344,-0.01
28.348,-0.01
28.352,0.01
28.356,-0.045
28.36,-0.075
28.364,-0.075
28.368,-0.095
28.372,-0.1
28.376,-0.125
28.38,-0.14
28.384,-0.15
28.388,-0.15
28.392,-0.13
28.396,-0.08
28.4,-0.085
28.404,-0.1
28.408,-0.125
28.412,-0.15
28.416,-0.17
28.42,-0.18
28.424,-0.215
28.428,-0.24
28.432,-0.245
28.436,-0.235
28.44,-0.24
28.444,-0.25
28.448,-0.255
28.452,-0.275
28.456,-0.285
28.46,-0.305
28.464,-0.295
28.468,-0.3
28.472,-0.295
28.476,-0.3
28.48,-0.285
28.484,-0.285
28.488,-0.285
28.492,-0.295
28.496,-0.295
28.5,-0.325
28.504,-0.32
28.508,-0.325
28.512,-0.35
28.516,-0.32
28.52,-0.32
28.524,-0.345
28.528,-0.34
28.532,-0.335
28.536,-0.335
28.54,-0.335
28.544,-0.335
28.548,-0.36
28.552,-0.355
28.556,-0.375
28.56,-0.365
28.564,-0.395
28.568,-0.38
28.572,-0.375
28.576,-0.37
28.58,-0.36
28.584,-0.37
28.588,-0.36
28.592,-0.365
28.596,-0.34
28.6,-0.33
28.604,-0.32
28.608,-0.315
28.612,-0.305
28.616,-0.295
28.62,-0.31
28.624,-0.315
28.628,-0.32
28.632,-0.35
28.636,-0.375
28.64,-0.375
28.644,-0.38
28.648,-0.395
28.652,-0.375
28.656,-0.395
28.66,-0.38
28.664,-0.37
28.668,-0.37
28.672,-0.335
28.676,-0.325
28.68,-0.34
28.684,-0.325
28.688,-0.25
28.692,-0.18
28.696,-0.1
28.7,0.04
28.704,0.25
28.708,0.52
28.712,0.675
28.716,0.8
28.72,0.76
28.724,0.315
28.728,-0.485
28.732,-1.175
28.736,-1.54
28.74,-1.62
28.744,-1.56
28.748,-1.4
28.752,-1.135
28.756,-0.875
28.76,-0.71
28.764,-0.585
28.768,-0.55
28.772,-0.52
28.776,-0.505
28.78,-0.46
28.784,-0.47
28.788,-0.46
28.792,-0.455
28.796,-0.44
28.8,-0.425
28.804,-0.445
28.808,-0.435
28.812,-0.44
28.816,-0.44
28.82,-0.415
28.824,-0.4
28.828,-0.41
28.832,-0.44
28.836,-0.45
28.84,-0.455
28.844,-0.485
28.848,-0.465
28.852,-0.485
28.856,-0.525
28.86,-0.56
28.864,-0.57
28.868,-0.57
28.872,-0.56
28.876,-0.565
28.88,-0.535
28.884,-0.505
28.888,-0.485
28.892,-0.475
28.896,-0.485
28.9,-0.47
28.904,-0.44
28.908,-0.42
28.912,-0.4
28.916,-0.41
28.92,-0.425
28.924,-0.39
28.928,-0.385
28.932,-0.35
28.936,-0.365
28.94,-0.345
28.944,-0.35
28.948,-0.335
28.952,-0.315
28.956,-0.315
28.96,-0.305
28.964,-0.28
28.968,-0.255
28.972,-0.215
28.976,-0.18
28.98,-0.17
28.984,-0.14
28.988,-0.12
28.992,-0.09
28.996,-0.045
29.0,-0.015
29.004,0.025
29.008,0.035
29.012,0.08
29.016,0.14
29.02,0.11
29.024,0.135
29.028,0.14
29.032,0.155
29.036,0.165
29.04,0.15
29.044,0.18
29.048,0.16
29.052,0.1
29.056,0.065
29.06,0.01
29.064,-0.035
29.068,-0.095
29.072,-0.14
29.076,-0.18
29.08,-0.23
29.084,-0.29
29.088,-0.3
29.092,-0.315
29.096,-0.33
29.1,-0.345
29.104,-0.31
29.108,-0.315
29.112,-0.34
29.116,-0.33
29.12,-0.325
29.124,-0.33
29.128,-0.375
29.132,-0.395
29.136,-0.415
29.14,-0.445
29.144,-0.45
29.148,-0.445
29.152,-0.435
29.156,-0.44
29.16,-0.425
29.164,-0.435
29.168,-0.445
29.172,-0.44
29.176,-0.475
29.18,-0.48
29.184,-0.435
29.188,-0.42
29.192,-0.345
29.196,-0.145
29.2,0.1
29.204,0.31
29.208,0.52
29.212,0.63
29.216,0.35
29.22,-0.465
29.224,-1.265
29.228,-1.8
29.232,-1.905
29.236,-1.68
29.24,-1.305
29.244,-0.94
29.248,-0.69
29.252,-0.545
29.256,-0.485
29.26,-0.445
29.264,-0.465
29.268,-0.47
29.272,-0.455
29.276,-0.47
29.28,-0.48
29.284,-0.455
29.288,-0.445
29.292,-0.455
29.296,-0.44
29.3,-0.44
29.304,-0.455
29.308,-0.47
29.312,-0.45
29.316,-0.47
29.32,-0.48
29.324,-0.47
29.328,-0.45
29.332,-0.46
29.336,-0.465
29.34,-0.475
29.344,-0.52
29.348,-0.535
29.352,-0.595
29.356,-0.625
29.36,-0.65
29.364,-0.675
29.368,-0.7
29.372,-0.7
29.376,-0.715
29.38,-0.715
29.384,-0.75
29.388,-0.785
29.392,-0.83
29.396,-0.86
29.4,-0.88
29.404,-0.915
29.408,-0.965
29.412,-0.97
29.416,-0.99
29.42,-1.005
29.424,-1.015
29.428,-1.015
29.432,-1.045
29.436,-1.05
29.44,-1.07
29.444,-1.085
29.448,-1.11
29.452,-1.115
29.456,-1.12
29.46,-1.13
29.464,-1.11
29.468,-1.07
29.472,-1.03
29.476,-0.97
29.48,-0.925
29.484,-0.875
29.488,-0.83
29.492,-0.78
29.496,-0.72
29.5,-0.66
29.504,-0.585
29.508,-0.525
29.512,-0.385
29.516,-0.27
29.52,-0.175
29.524,-0.005
29.528,0.22
29.532,0.475
29.536,0.735
29.54,0.915
29.544,0.68
29.548,-0.155
29.552,-0.995
29.556,-1.31
29.56,-1.305
29.564,-1.18
29.568,-0.97
29.572,-0.75
29.576,-0.6
29.58,-0.535
29.584,-0.5
29.588,-0.44
29.592,-0.415
29.596,-0.42
29.6,-0.405
29.604,-0.41
29.608,-0.385
29.612,-0.38
29.616,-0.36
29.62,-0.405
29.624,-0.43
29.628,-0.41
29.632,-0.405
29.636,-0.405
29.64,-0.415
29.644,-0.415
29.648,-0.41
29.652,-0.4
29.656,-0.41
29.66,-0.43
29.664,-0.435
29.668,-0.45
29.672,-0.47
29.676,-0.495
29.68,-0.495
29.684,-0.51
29.688,-0.515
29.692,-0.52
29.696,-0.52
29.7,-0.555
29.704,-0.59
29.708,-0.595
29.712,-0.64
29.716,-0.675
29.72,-0.7
29.724,-0.715
29.728,-0.745
29.732,-0.715
29.736,-0.71
29.74,-0.66
29.744,-0.675
29.748,-0.655
29.752,-0.635
29.756,-0.615
29.76,-0.595
29.764,-0.59
29.768,-0.595
29.772,-0.56
29.776,-0.54
29.78,-0.495
29.784,-0.455
29.788,-0.435
29.792,-0.385
29.796,-0.375
29.8,-0.34
29.804,-0.32
29.808,-0.32
29.812,-0.305
29.816,-0.3
29.82,-0.305
29.824,-0.285
29.828,-0.305
29.832,-0.3
29.836,-0.31
29.84,-0.315
29.844,-0.34
29.848,-0.38
29.852,-0.405
29.856,-0.405
29.86,-0.43
29.864,-0.44
29.868,-0.44
29.872,-0.435
29.876,-0.44
29.88,-0.47
29.884,-0.475
29.888,-0.47
29.892,-0.5
29.896,-0.505
29.9,-0.49
29.904,-0.51
29.908,-0.52
29.912,-0.515
29.916,-0.525
29.92,-0.54
29.924,-0.55
29.928,-0.55
29.932,-0.59
29.936,-0.605
29.94,-0.61
29.944,-0.6
29.948,-0.6
29.952,-0.56
29.956,-0.55
29.96,-0.54
29.964,-0.52
29.968,-0.49
29.972,-0.45
29.976,-0.385
29.98,-0.255
29.984,-0.065
29.988,0.215
29.992,0.44
29.996,0.625
30.0,0.68
30.004,0.335
30.008,-0.44
30.012,-1.18
30.016,-1.575
30.02,-1.68
30.024,-1.57
30.028,-1.38
30.032,-1.1
30.036,-0.865
30.04,-0.71
30.044,-0.6
30.048,-0.565
30.052,-0.515
30.056,-0.495
30.06,-0.485
30.064,-0.49
30.068,-0.49
30.072,-0.49
30.076,-0.5
30.08,-0.515
30.084,-0.5
30.088,-0.51
30.092,-0.515
30.096,-0.5
30.1,-0.495
30.104,-0.51
30.108,-0.52
30.112,-0.51
30.116,-0.52
30.12,-0.555
30.124,-0.58
30.128,-0.59
30.132,-0.6
30.136,-0.625
30.14,-0.625
30.144,-0.625
30.148,-0.65
30.152,-0.665
30.156,-0.71
30.16,-0.74
30.164,-0.76
30.168,-0.8
30.172,-0.805
30.176,-0.835
30.18,-0.86
30.184,-0.845
30.188,-0.805
30.192,-0.77
30.196,-0.715
30.2,-0.67
30.204,-0.605
30.208,-0.57
30.212,-0.545
30.216,-0.56
30.22,-0.55
30.224,-0.54
30.228,-0.495
30.232,-0.485
30.236,-0.45
30.24,-0.44
30.244,-0.43
30.248,-0.41
30.252,-0.4
30.256,-0.37
30.26,-0.345
30.264,-0.28
30.268,-0.275
30.272,-0.24
30.276,-0.195
30.28,-0.17
30.284,-0.145
30.288,-0.13
30.292,-0.11
30.296,-0.135
30.3,-0.125
30.304,-0.14
30.308,-0.155
30.312,-0.175
30.316,-0.18
30.32,-0.2
30.324,-0.21
30.328,-0.255
30.332,-0.255
30.336,-0.295
30.34,-0.34
30.344,-0.38
30.348,-0.37
30.352,-0.41
30.356,-0.42
30.36,-0.45
30.364,-0.45
30.368,-0.44
30.372,-0.44
30.376,-0.48
30.38,-0.485
30.384,-0.505
30.388,-0.555
30.392,-0.57
30.396,-0.59
30.4,-0.595
30.404,-0.61
30.408,-0.59
30.412,-0.535
30.416,-0.465
30.42,-0.3
30.424,-0.06
30.428,0.19
30.432,0.41
30.436,0.58
30.44,0.465
30.444,-0.24
30.448,-1.09
30.452,-1.61
30.456,-1.775
30.46,-1.6
30.464,-1.32
30.468,-0.96
30.472,-0.74
30.476,-0.64
30.48,-0.58
30.484,-0.505
30.488,-0.505
30.492,-0.5
30.496,-0.49
30.5,-0.485
30.504,-0.47
30.508,-0.48
30.512,-0.5
30.516,-0.51
30.52,-0.51
30.524,-0.535
30.528,-0.555
30.532,-0.54
30.536,-0.54
30.54,-0.54
30.544,-0.51
30.548,-0.53
30.552,-0.56
30.556,-0.565
30.56,-0.57
30.564,-0.585
30.568,-0.61
30.572,-0.63
30.576,-0.66
30.58,-0.66
30.584,-0.67
30.588,-0.695
30.592,-0.7
30.596,-0.705
30.6,-0.71
30.604,-0.73
30.608,-0.755
30.612,-0.775
30.616,-0.795
30.62,-0.8
30.624,-0.82
30.628,-0.835
30.632,-0.86
30.636,-0.88
30.64,-0.9
30.644,-0.92
30.648,-0.95
30.652,-0.995
30.656,-1.015
30.66,-1.02
30.664,-0.995
30.668,-0.965
30.672,-0.86
30.676,-0.765
30.68,-0.685
30.684,-0.64
30.688,-0.57
30.692,-0.53
30.696,-0.485
30.7,-0.455
30.704,-0.41
30.708,-0.375
30.712,-0.34
30.716,-0.325
30.72,-0.275
30.724,-0.255
30.728,-0.245
30.732,-0.25
30.736,-0.28
30.74,-0.27
30.744,-0.295
30.748,-0.32
30.752,-0.32
30.756,-0.34
30.76,-0.335
30.764,-0.32
30.768,-0.295
30.772,-0.23
30.776,-0.13
30.78,0.02
30.784,0.29
30.788,0.535
30.792,0.715
30.796,0.89
30.8,1.05
30.804,0.79
30.808,-0.06
30.812,-1.0
30.816,-1.5
30.82,-1.56
30.824,-1.41
30.828,-1.195
30.832,-0.96
30.836,-0.755
30.84,-0.65
30.844,-0.565
30.848,-0.49
30.852,-0.49
30.856,-0.49
30.86,-0.455
30.864,-0.455
30.868,-0.45
30.872,-0.485
30.876,-0.505
30.88,-0.49
30.884,-0.53
30.888,-0.565
30.892,-0.635
30.896,-0.64
30.9,-0.635
30.904,-0.595
30.908,-0.555
30.912,-0.49
30.916,-0.465
30.92,-0.465
30.924,-0.46
30.928,-0.41
30.932,-0.445
30.936,-0.455
30.94,-0.47
30.944,-0.475
30.948,-0.465
30.952,-0.455
30.956,-0.49
30.96,-0.49
30.964,-0.525
30.968,-0.555
30.972,-0.565
30.976,-0.57
30.98,-0.59
30.984,-0.565
30.988,-0.575
30.992,-0.58
30.996,-0.595
31.0,-0.595
31.004,-0.595
31.008,-0.645
31.012,-0.63
31.016,-0.665
31.02,-0.625
31.024,-0.61
31.028,-0.62
31.032,-0.59
31.036,-0.54
31.04,-0.48
31.044,-0.46
31.048,-0.4
31.052,-0.355
31.056,-0.32
31.06,-0.31
31.064,-0.3
31.068,-0.28
31.072,-0.245
31.076,-0.235
31.08,-0.2
31.084,-0.19
31.088,-0.19
31.092,-0.2
31.096,-0.235
31.1,-0.265
31.104,-0.255
31.108,-0.275
31.112,-0.29
31.116,-0.24
31.12,-0.18
31.124,-0.03
31.128,0.1
31.132,0.335
31.136,0.545
31.14,0.73
31.144,0.915
31.148,1.12
31.152,1.055
31.156,0.42
31.16,-0.5
31.164,-1.07
31.168,-1.195
31.172,-1.065
31.176,-0.84
31.18,-0.64
31.184,-0.51
31.188,-0.44
31.192,-0.39
31.196,-0.375
31.2,-0.4
31.204,-0.36
31.208,-0.32
31.212,-0.33
31.216,-0.32
31.22,-0.33
31.224,-0.32
31.228,-0.34
31.232,-0.355
31.236,-0.365
31.24,-0.39
31.244,-0.41
31.248,-0.43
31.252,-0.43
31.256,-0.425
31.26,-0.45
31.264,-0.42
31.268,-0.44
31.272,-0.44
31.276,-0.46
31.28,-0.46
31.284,-0.515
31.288,-0.555
31.292,-0.54
31.296,-0.565
31.3,-0.585
31.304,-0.61
31.308,-0.605
31.312,-0.61
31.316,-0.655
31.32,-0.665
31.324,-0.685
31.328,-0.7
31.332,-0.735
31.336,-0.73
31.34,-0.695
31.344,-0.605
31.348,-0.59
31.352,-0.575
31.356,-0.59
31.36,-0.565
31.364,-0.545
31.368,-0.51
31.372,-0.52
31.376,-0.55
31.38,-0.575
31.384,-0.57
31.388,-0.54
31.392,-0.54
31.396,-0.44
31.4,-0.395
31.404,-0.365
31.408,-0.355
31.412,-0.355
31.416,-0.305
31.42,-0.275
31.424,-0.275
31.428,-0.285
31.432,-0.285
31.436,-0.26
31.44,-0.26
31.444,-0.265
31.448,-0.3
31.452,-0.34
31.456,-0.395
31.46,-0.495
31.464,-0.515
31.468,-0.53
31.472,-0.535
31.476,-0.535
31.48,-0.53
31.484,-0.525
31.488,-0.53
31.492,-0.55
31.496,-0.565
31.5,-0.58
31.504,-0.595
31.508,-0.625
31.512,-0.615
31.516,-0.625
31.52,-0.64
31.524,-0.66
31.528,-0.67
31.532,-0.64
31.536,-0.64
31.54,-0.64
31.544,-0.7
31.548,-0.75
31.552,-0.725
31.556,-0.705
31.56,-0.67
31.564,-0.615
31.568,-0.61
31.572,-0.58
31.576,-0.535
31.58,-0.51
31.584,-0.49
31.588,-0.515
31.592,-0.555
31.596,-0.585
31.6,-0.535
31.604,-0.555
31.608,-0.56
31.612,-0.5
31.616,-0.435
31.62,-0.285
31.624,0.0
31.628,0.33
31.632,0.59
31.636,0.715
31.64,0.685
31.644,0.395
31.648,-0.395
31.652,-1.235
31.656,-1.765
31.66,-1.925
31.664,-1.85
31.668,-1.69
31.672,-1.45
31.676,-1.15
31.68,-0.965
31.684,-0.885
31.688,-0.835
31.692,-0.775
31.696,-0.745
31.7,-0.745
31.704,-0.73
31.708,-0.705
31.712,-0.675
31.716,-0.67
31.72,-0.705
31.724,-0.73
31.728,-0.71
31.732,-0.695
31.736,-0.72
31.74,-0.74
31.744,-0.765
31.748,-0.77
31.752,-0.745
31.756,-0.775
31.76,-0.77
31.764,-0.79
31.768,-0.8
31.772,-0.83
31.776,-0.845
31.78,-0.86
31.784,-0.845
31.788,-0.82
31.792,-0.75
31.796,-0.68
31.8,-0.67
31.804,-0.705
31.808,-0.685
31.812,-0.64
31.816,-0.63
31.82,-0.645
31.824,-0.665
31.828,-0.7
31.832,-0.705
31.836,-0.685
31.84,-0.685
31.844,-0.7
31.848,-0.69
31.852,-0.66
31.856,-0.65
31.86,-0.675
31.864,-0.69
31.868,-0.695
31.872,-0.69
31.876,-0.69
31.88,-0.67
31.884,-0.685
31.888,-0.625
31.892,-0.59
31.896,-0.545
31.9,-0.54
31.904,-0.555
31.908,-0.545
31.912,-0.54
31.916,-0.51
31.92,-0.47
31.924,-0.47
31.928,-0.445
31.932,-0.39
31.936,-0.395
31.94,-0.425
31.944,-0.425
31.948,-0.42
31.952,-0.44
31.956,-0.445
31.96,-0.475
31.964,-0.48
31.968,-0.505
31.972,-0.53
31.976,-0.525
31.98,-0.52
31.984,-0.545
31.988,-0.585
31.992,-0.62
31.996,-0.635
32.0,-0.655
32.004,-0.71
32.008,-0.705
32.012,-0.715
32.016,-0.69
32.02,-0.68
32.024,-0.625
32.028,-0.59
32.032,-0.555
32.036,-0.535
32.04,-0.52
32.044,-0.515
32.048,-0.51
32.052,-0.565
32.056,-0.585
32.06,-0.57
32.064,-0.58
32.068,-0.575
32.072,-0.56
32.076,-0.56
32.08,-0.58
32.084,-0.585
32.088,-0.615
32.092,-0.625
32.096,-0.635
32.1,-0.64
32.104,-0.635
32.108,-0.64
32.112,-0.62
32.116,-0.615
32.12,-0.605
32.124,-0.61
32.128,-0.62
32.132,-0.605
32.136,-0.635
32.14,-0.64
32.144,-0.63
32.148,-0.64
32.152,-0.655
32.156,-0.615
32.16,-0.6
32.164,-0.585
32.168,-0.55
32.172,-0.515
32.176,-0.465
32.18,-0.385
32.184,-0.145
32.188,0.165
32.192,0.415
32.196,0.555
32.2,0.565
32.204,0.28
32.208,-0.465
32.212,-1.28
32.216,-1.745
32.22,-1.875
32.224,-1.82
32.228,-1.675
32.232,-1.46
32.236,-1.24
32.24,-1.09
32.244,-0.935
32.248,-0.83
32.252,-0.76
32.256,-0.68
32.26,-0.63
32.264,-0.595
32.268,-0.595
32.272,-0.575
32.276,-0.55
32.28,-0.53
32.284,-0.525
32.288,-0.515
32.292,-0.535
32.296,-0.53
32.3,-0.515
32.304,-0.525
32.308,-0.535
32.312,-0.56
32.316,-0.59
32.32,-0.58
32.324,-0.565
32.328,-0.59
32.332,-0.59
32.336,-0.615
32.34,-0.615
32.344,-0.62
32.348,-0.61
32.352,-0.63
32.356,-0.64
32.36,-0.675
32.364,-0.675
32.368,-0.7
32.372,-0.71
32.376,-0.725
32.38,-0.745
32.384,-0.74
32.388,-0.735
32.392,-0.745
32.396,-0.77
32.4,-0.76
32.404,-0.8
32.408,-0.78
32.412,-0.785
32.416,-0.795
32.42,-0.825
32.424,-0.81
32.428,-0.81
32.432,-0.825
32.436,-0.82
32.44,-0.815
32.444,-0.835
32.448,-0.83
32.452,-0.83
32.456,-0.84
32.46,-0.825
32.464,-0.845
32.468,-0.83
32.472,-0.83
32.476,-0.835
32.48,-0.795
32.484,-0.8
32.488,-0.81
32.492,-0.8
32.496,-0.75
32.5,-0.7
32.504,-0.6
32.508,-0.5
32.512,-0.39
32.516,-0.335
32.52,-0.315
32.524,-0.3
32.528,-0.285
32.532,-0.295
32.536,-0.32
32.54,-0.32
32.544,-0.31
32.548,-0.32
32.552,-0.33
32.556,-0.33
32.56,-0.31
32.564,-0.32
32.568,-0.295
32.572,-0.26
32.576,-0.195
32.58,-0.105
32.584,0.01
32.588,0.175
32.592,0.37
32.596,0.545
32.6,0.66
32.604,0.71
32.608,0.43
32.612,-0.405
32.616,-1.365
32.62,-1.84
32.624,-1.91
32.628,-1.72
32.632,-1.37
32.636,-1.045
32.64,-0.785
32.644,-0.62
32.648,-0.51
32.652,-0.43
32.656,-0.415
32.66,-0.4
32.664,-0.435
32.668,-0.425
32.672,-0.44
32.676,-0.44
32.68,-0.44
32.684,-0.435
32.688,-0.435
32.692,-0.405
32.696,-0.385
32.7,-0.385
32.704,-0.39
32.708,-0.42
32.712,-0.4
32.716,-0.42
32.72,-0.43
32.724,-0.455
32.728,-0.445
32.732,-0.46
32.736,-0.465
32.74,-0.47
32.744,-0.475
32.748,-0.51
32.752,-0.525
32.756,-0.565
32.76,-0.575
32.764,-0.58
32.768,-0.61
32.772,-0.64
32.776,-0.65
32.78,-0.655
32.784,-0.655
32.788,-0.67
32.792,-0.705
32.796,-0.705
32.8,-0.77
32.804,-0.785
32.808,-0.8
32.812,-0.78
32.816,-0.805
32.82,-0.805
32.824,-0.78
32.828,-0.78
32.832,-0.75
32.836,-0.72
32.84,-0.69
32.844,-0.685
32.848,-0.635
32.852,-0.605
32.856,-0.565
32.86,-0.51
32.864,-0.45
32.868,-0.395
32.872,-0.345
32.876,-0.315
32.88,-0.295
32.884,-0.295
32.888,-0.3
32.892,-0.315
32.896,-0.3
32.9,-0.285
32.904,-0.3
32.908,-0.305
32.912,-0.285
32.916,-0.295
32.92,-0.3
32.924,-0.305
32.928,-0.335
32.932,-0.34
32.936,-0.355
32.94,-0.38
32.944,-0.385
32.948,-0.38
32.952,-0.365
32.956,-0.37
32.96,-0.36
32.964,-0.365
32.968,-0.37
32.972,-0.395
32.976,-0.4
32.98,-0.41
32.984,-0.425
32.988,-0.43
32.992,-0.435
32.996,-0.42
33.0,-0.405
33.004,-0.395
33.008,-0.4
33.012,-0.41
33.016,-0.4
33.02,-0.425
33.024,-0.415
33.028,-0.395
33.032,-0.37
33.036,-0.345
33.04,-0.3
33.044,-0.205
33.048,-0.155
33.052,-0.1
33.056,-0.075
33.06,-0.08
33.064,-0.08
33.068,-0.11
33.072,-0.16
33.076,-0.19
33.08,-0.24
33.084,-0.27
33.088,-0.305
33.092,-0.335
33.096,-0.375
33.1,-0.425
33.104,-0.445
33.108,-0.475
33.112,-0.495
33.116,-0.49
33.12,-0.495
33.124,-0.48
33.128,-0.455
33.132,-0.42
33.136,-0.37
33.14,-0.3
33.144,-0.19
33.148,-0.01
33.152,0.265
33.156,0.495
33.16,0.63
33.164,0.745
33.168,0.675
33.172,0.125
33.176,-0.75
33.18,-1.47
33.184,-1.795
33.188,-1.815
33.192,-1.64
33.196,-1.385
33.2,-1.12
33.204,-0.88
33.208,-0.735
33.212,-0.64
33.216,-0.57
33.22,-0.53
33.224,-0.515
33.228,-0.505
33.232,-0.485
33.236,-0.49
33.24,-0.5
33.244,-0.51
33.248,-0.505
33.252,-0.525
33.256,-0.525
33.26,-0.525
33.264,-0.505
33.268,-0.51
33.272,-0.525
33.276,-0.515
33.28,-0.52
33.284,-0.55
33.288,-0.55
33.292,-0.58
33.296,-0.565
33.3,-0.59
33.304,-0.575
33.308,-0.57
33.312,-0.59
33.316,-0.57
33.32,-0.58
33.324,-0.59
33.328,-0.64
33.332,-0.64
33.336,-0.655
33.34,-0.68
33.344,-0.69
33.348,-0.7
33.352,-0.7
33.356,-0.705
33.36,-0.71
33.364,-0.71
33.368,-0.715
33.372,-0.72
33.376,-0.74
33.38,-0.76
33.384,-0.74
33.388,-0.765
33.392,-0.76
33.396,-0.76
33.4,-0.745
33.404,-0.75
33.408,-0.76
33.412,-0.735
33.416,-0.745
33.42,-0.74
33.424,-0.745
33.428,-0.735
33.432,-0.715
33.436,-0.675
33.44,-0.625
33.444,-0.575
33.448,-0.525
33.452,-0.49
33.456,-0.46
33.46,-0.425
33.464,-0.4
33.468,-0.36
33.472,-0.31
33.476,-0.3
33.48,-0.28
33.484,-0.24
33.488,-0.2
33.492,-0.19
33.496,-0.19
33.5,-0.18
33.504,-0.21
33.508,-0.2
33.512,-0.22
33.516,-0.225
33.52,-0.245
33.524,-0.23
33.528,-0.24
33.532,-0.23
33.536,-0.24
33.54,-0.23
33.544,-0.265
33.548,-0.27
33.552,-0.29
33.556,-0.305
33.56,-0.31
33.564,-0.305
33.568,-0.305
33.572,-0.305
33.576,-0.3
33.58,-0.31
33.584,-0.315
33.588,-0.3
33.592,-0.32
33.596,-0.335
33.6,-0.34
33.604,-0.355
33.608,-0.34
33.612,-0.36
33.616,-0.345
33.62,-0.35
33.624,-0.345
33.628,-0.33
33.632,-0.35
33.636,-0.35
33.64,-0.375
33.644,-0.375
33.648,-0.375
33.652,-0.38
33.656,-0.38
33.66,-0.365
33.664,-0.36
33.668,-0.355
33.672,-0.36
33.676,-0.335
33.68,-0.35
33.684,-0.385
33.688,-0.38
33.692,-0.4
33.696,-0.4
33.7,-0.395
33.704,-0.395
33.708,-0.365
33.712,-0.365
33.716,-0.35
33.72,-0.365
33.724,-0.37
33.728,-0.38
33.732,-0.38
33.736,-0.375
33.74,-0.385
33.744,-0.36
33.748,-0.36
33.752,-0.35
33.756,-0.32
33.76,-0.335
33.764,-0.32
33.768,-0.35
33.772,-0.365
33.776,-0.375
33.78,-0.375
33.784,-0.37
33.788,-0.36
33.792,-0.36
33.796,-0.35
33.8,-0.34
33.804,-0.33
33.808,-0.365
33.812,-0.35
33.816,-0.35
33.82,-0.375
33.824,-0.385
33.828,-0.365
33.832,-0.38
33.836,-0.37
33.84,-0.355
33.844,-0.34
33.848,-0.35
33.852,-0.34
33.856,-0.345
33.86,-0.365
33.864,-0.36
33.868,-0.365
33.872,-0.375
33.876,-0.36
33.88,-0.345
33.884,-0.355
33.888,-0.335
33.892,-0.34
33.896,-0.33
33.9,-0.35
33.904,-0.365
33.908,-0.36
33.912,-0.38
33.916,-0.39
33.92,-0.39
33.924,-0.375
33.928,-0.35
33.932,-0.345
33.936,-0.325
33.94,-0.335
33.944,-0.325
33.948,-0.355
33.952,-0.365
33.956,-0.39
33.96,-0.365
33.964,-0.365
33.968,-0.325
33.972,-0.305
33.976,-0.275
33.98,-0.24
33.984,-0.21
33.988,-0.215
33.992,-0.205
33.996,-0.225
34.0,-0.2
34.004,-0.185
34.008,-0.16
34.012,-0.125
34.016,-0.085
34.02,-0.05
34.024,-0.02
34.028,-0.02
34.032,-0.005
34.036,0.035
34.04,0.035
34.044,0.04
34.048,0.04
34.052,0.06
34.056,0.095
34.06,0.09
34.064,0.035
34.068,0.035
34.072,0.015
34.076,-0.03
34.08,-0.075
34.084,-0.105
34.088,-0.14
34.092,-0.15
34.096,-0.18
34.1,-0.165
34.104,-0.18
34.108,-0.145
34.112,-0.13
34.116,-0.12
34.12,-0.09
34.124,-0.02
34.128,0.035
34.132,0.185
34.136,0.46
34.14,0.735
34.144,0.94
34.148,1.06
34.152,1.135
34.156,0.855
34.16,0.1
34.164,-0.725
34.168,-1.255
34.172,-1.435
34.176,-1.37
34.18,-1.19
34.184,-0.96
34.188,-0.7
34.192,-0.505
34.196,-0.37
34.2,-0.305
34.204,-0.255
34.208,-0.23
34.212,-0.21
34.216,-0.18
34.22,-0.2
34.224,-0.23
34.228,-0.22
34.232,-0.2
34.236,-0.21
34.24,-0.24
34.244,-0.23
34.248,-0.225
34.252,-0.225
34.256,-0.225
34.26,-0.22
34.264,-0.215
34.268,-0.25
34.272,-0.255
34.276,-0.275
34.28,-0.285
34.284,-0.29
34.288,-0.285
34.292,-0.26
34.296,-0.265
34.3,-0.28
34.304,-0.295
34.308,-0.315
34.312,-0.31
34.316,-0.335
34.32,-0.36
34.324,-0.375
34.328,-0.365
34.332,-0.385
34.336,-0.38
34.34,-0.36
34.344,-0.365
34.348,-0.395
34.352,-0.375
34.356,-0.395
34.36,-0.43
34.364,-0.435
34.368,-0.43
34.372,-0.425
34.376,-0.43
34.38,-0.425
34.384,-0.39
34.388,-0.385
34.392,-0.39
34.396,-0.38
34.4,-0.39
34.404,-0.415
34.408,-0.41
34.412,-0.41
34.416,-0.395
34.42,-0.36
34.424,-0.385
34.428,-0.35
34.432,-0.34
34.436,-0.32
34.44,-0.31
34.444,-0.28
34.448,-0.255
34.452,-0.255
34.456,-0.21
34.46,-0.22
34.464,-0.165
34.468,-0.135
34.472,-0.095
34.476,-0.055
34.48,0.005
34.484,-0.025
34.488,-0.01
34.492,0.0
34.496,0.0
34.5,0.025
34.504,0.02
34.508,0.02
34.512,0.01
34.516,0.035
34.52,0.06
34.524,0.035
34.528,0.03
34.532,0.01
34.536,-0.015
34.54,-0.005
34.544,-0.02
34.548,-0.035
34.552,-0.04
34.556,-0.05
34.56,-0.045
34.564,-0.05
34.568,-0.035
34.572,-0.05
34.576,-0.04
34.58,-0.045
34.584,-0.065
34.588,-0.085
34.592,-0.1
34.596,-0.09
34.6,-0.085
34.604,-0.085
34.608,-0.05
34.612,-0.05
34.616,-0.045
34.62,-0.065
34.624,-0.055
34.628,-0.06
34.632,-0.07
34.636,-0.08
34.64,-0.095
34.644,-0.09
34.648,-0.095
34.652,-0.07
34.656,-0.075
34.66,-0.075
34.664,-0.08
34.668,-0.075
34.672,-0.075
34.676,-0.1
34.68,-0.11
34.684,-0.115
34.688,-0.115
34.692,-0.095
34.696,-0.095
34.7,-0.075
34.704,-0.065
34.708,-0.05
34.712,-0.07
34.716,-0.08
34.72,-0.085
34.724,-0.105
34.728,-0.105
34.732,-0.105
34.736,-0.11
34.74,-0.1
34.744,-0.1
34.748,-0.08
34.752,-0.1
34.756,-0.075
34.76,-0.095
34.764,-0.1
34.768,-0.1
34.772,-0.105
34.776,-0.1
34.78,-0.1
34.784,-0.08
34.788,-0.065
34.792,-0.055
34.796,-0.05
34.8,-0.055
34.804,-0.055
34.808,-0.07
34.812,-0.09
34.816,-0.105
34.82,-0.085
34.824,-0.08
34.828,-0.085
34.832,-0.07
34.836,-0.05
34.84,-0.05
34.844,-0.05
34.848,-0.05
34.852,-0.065
34.856,-0.075
34.86,-0.075
34.864,-0.075
34.868,-0.08
34.872,-0.06
34.876,-0.055
34.88,-0.02
34.884,-0.035
34.888,-0.01
34.892,0.005
34.896,0.02
34.9,0.045
34.904,0.035
34.908,0.06
34.912,0.06
34.916,0.085
34.92,0.105
34.924,0.13
34.928,0.125
34.932,0.105
34.936,0.12
34.94,0.14
34.944,0.115
34.948,0.08
34.952,0.045
34.956,0.02
34.96,0.0
34.964,-0.015
34.968,-0.04
34.972,-0.045
34.976,-0.055
34.98,-0.08
34.984,-0.07
34.988,-0.085
34.992,-0.115
34.996,-0.095
35.0,-0.085
35.004,-0.045
35.008,0.02
35.012,0.11
35.016,0.275
35.02,0.575
35.024,0.86
35.028,1.075
35.032,1.2
35.036,1.17
35.04,0.69
35.044,-0.22
35.048,-0.97
35.052,-1.33
35.056,-1.38
35.06,-1.24
35.064,-0.985
35.068,-0.72
35.072,-0.51
35.076,-0.335
35.08,-0.255
35.084,-0.18
35.088,-0.16
35.092,-0.16
35.096,-0.15
35.1,-0.12
35.104,-0.125
35.108,-0.11
35.112,-0.105
35.116,-0.125
35.12,-0.15
35.124,-0.155
35.128,-0.15
35.132,-0.18
35.136,-0.16
35.14,-0.17
35.144,-0.155
35.148,-0.12
35.152,-0.12
35.156,-0.15
35.16,-0.16
35.164,-0.165
35.168,-0.19
35.172,-0.205
35.176,-0.22
35.18,-0.235
35.184,-0.235
35.188,-0.235
35.192,-0.24
35.196,-0.245
35.2,-0.26
35.204,-0.29
35.208,-0.31
35.212,-0.34
35.216,-0.355
35.22,-0.38
35.224,-0.4
35.228,-0.42
35.232,-0.435
35.236,-0.44
35.24,-0.45
35.244,-0.465
35.248,-0.48
35.252,-0.495
35.256,-0.525
35.26,-0.55
35.264,-0.575
35.268,-0.57
35.272,-0.585
35.276,-0.585
35.28,-0.595
35.284,-0.595
35.288,-0.6
35.292,-0.605
35.296,-0.625
35.3,-0.64
35.304,-0.645
35.308,-0.635
35.312,-0.61
35.316,-0.58
35.32,-0.515
35.324,-0.45
35.328,-0.42
35.332,-0.37
35.336,-0.345
35.34,-0.31
35.344,-0.245
35.348,-0.205
35.352,-0.18
35.356,-0.14
35.36,-0.09
35.364,-0.065
35.368,-0.02
35.372,0.0
35.376,0.025
35.38,0.035
35.384,0.03
35.388,0.015
35.392,0.04
35.396,0.04
35.4,0.035
35.404,0.05
35.408,0.055
35.412,0.07
35.416,0.06
35.42,0.045
35.424,0.045
35.428,0.035
35.432,0.015
35.436,0.025
35.44,0.015
35.444,0.0
35.448,0.0
35.452,0.025
35.456,0.065
35.46,0.06
35.464,0.05
35.468,0.035
35.472,0.05
35.476,0.015
35.48,-0.01
35.484,-0.01
35.488,-0.045
35.492,-0.03
35.496,-0.005
35.5,0.01
35.504,0.0
35.508,0.005
35.512,0.005
35.516,-0.01
35.52,-0.015
35.524,-0.05
35.528,-0.04
35.532,-0.04
35.536,-0.04
35.54,-0.04
35.544,-0.015
35.548,-0.01
35.552,-0.015
35.556,-0.03
35.56,-0.03
35.564,-0.055
35.568,-0.055
35.572,-0.05
35.576,-0.04
35.58,-0.06
35.584,-0.055
35.588,-0.03
35.592,-0.04
35.596,-0.04
35.6,-0.045
35.604,-0.07
35.608,-0.095
35.612,-0.085
35.616,-0.07
35.62,-0.055
35.624,-0.045
35.628,-0.065
35.632,-0.06
35.636,-0.055
35.64,-0.05
35.644,-0.065
35.648,-0.055
35.652,-0.08
35.656,-0.095
35.66,-0.085
35.664,-0.095
35.668,-0.1
35.672,-0.1
35.676,-0.08
35.68,-0.075
35.684,-0.075
35.688,-0.09
35.692,-0.11
35.696,-0.09
35.7,-0.075
35.704,-0.065
35.708,-0.08
35.712,-0.1
35.716,-0.1
35.72,-0.09
35.724,-0.065
35.728,-0.06
35.732,-0.07
35.736,-0.08
35.74,-0.06
35.744,-0.07
35.748,-0.04
35.752,-0.02
35.756,-0.005
35.76,0.03
35.764,0.035
35.768,0.06
35.772,0.085
35.776,0.085
35.78,0.06
35.784,0.03
35.788,0.045
35.792,0.035
35.796,0.015
35.8,-0.02
35.804,-0.04
35.808,-0.025
35.812,-0.065
35.816,-0.07
35.82,-0.12
35.824,-0.135
35.828,-0.15
35.832,-0.2
35.836,-0.195
35.84,-0.22
35.844,-0.215
35.848,-0.185
35.852,-0.135
35.856,-0.065
35.86,-0.015
35.864,0.105
35.868,0.345
35.872,0.645
35.876,0.935
35.88,1.145
35.884,1.275
35.888,1.05
35.892,0.34
35.896,-0.515
35.9,-1.14
35.904,-1.41
35.908,-1.41
35.912,-1.3
35.916,-1.135
35.92,-0.875
35.924,-0.64
35.928,-0.52
35.932,-0.415
35.936,-0.39
35.94,-0.33
35.944,-0.32
35.948,-0.34
35.952,-0.345
35.956,-0.375
35.96,-0.39
35.964,-0.42
35.968,-0.42
35.972,-0.445
35.976,-0.44
35.98,-0.46
35.984,-0.455
35.988,-0.45
35.992,-0.47
35.996,-0.455
36.0,-0.46
36.004,-0.47
36.008,-0.48
36.012,-0.49
36.016,-0.52
36.02,-0.53
36.024,-0.54
36.028,-0.525
36.032,-0.515
36.036,-0.525
36.04,-0.535
36.044,-0.555
36.048,-0.575
36.052,-0.605
36.056,-0.63
36.06,-0.655
36.064,-0.645
36.068,-0.655
36.072,-0.69
36.076,-0.715
36.08,-0.735
36.084,-0.74
36.088,-0.755
36.092,-0.8
36.096,-0.81
36.1,-0.82
36.104,-0.835
36.108,-0.865
36.112,-0.89
36.116,-0.9
36.12,-0.91
36.124,-0.905
36.128,-0.875
36.132,-0.91
36.136,-0.98
36.14,-0.985
36.144,-1.0
36.148,-0.995
36.152,-0.985
36.156,-0.935
36.16,-0.89
36.164,-0.83
36.168,-0.75
36.172,-0.705
36.176,-0.64
36.18,-0.595
36.184,-0.52
36.188,-0.47
36.192,-0.415
36.196,-0.395
36.2,-0.385
36.204,-0.39
36.208,-0.385
36.212,-0.37
36.216,-0.375
36.22,-0.365
36.224,-0.36
36.228,-0.37
36.232,-0.38
36.236,-0.385
36.24,-0.365
36.244,-0.37
36.248,-0.385
36.252,-0.395
36.256,-0.37
36.26,-0.39
36.264,-0.39
36.268,-0.41
36.272,-0.43
36.276,-0.425
36.28,-0.42
36.284,-0.415
36.288,-0.43
36.292,-0.44
36.296,-0.42
36.3,-0.405
36.304,-0.385
36.308,-0.395
36.312,-0.415
36.316,-0.43
36.32,-0.47
36.324,-0.45
36.328,-0.46
36.332,-0.465
36.336,-0.48
36.34,-0.445
36.344,-0.435
36.348,-0.43
36.352,-0.445
36.356,-0.445
36.36,-0.45
36.364,-0.46
36.368,-0.46
36.372,-0.44
36.376,-0.425
36.38,-0.46
36.384,-0.46
36.388,-0.43
36.392,-0.33
36.396,-0.085
36.4,0.27
36.404,0.645
36.408,0.885
36.412,0.875
36.416,0.31
36.42,-0.625
36.424,-1.36
36.428,-1.7
36.432,-1.76
36.436,-1.635
36.44,-1.45
36.444,-1.265
36.448,-1.01
36.452,-0.755
36.456,-0.575
36.46,-0.45
36.464,-0.365
36.468,-0.315
36.472,-0.28
36.476,-0.275
36.48,-0.28
36.484,-0.32
36.488,-0.355
36.492,-0.35
36.496,-0.36
36.5,-0.36
36.504,-0.38
36.508,-0.39
36.512,-0.39
36.516,-0.39
36.52,-0.365
36.524,-0.38
36.528,-0.38
36.532,-0.39
36.536,-0.43
36.54,-0.46
36.544,-0.495
36.548,-0.495
36.552,-0.5
36.556,-0.51
36.56,-0.525
36.564,-0.555
36.568,-0.55
36.572,-0.555
36.576,-0.565
36.58,-0.58
36.584,-0.62
36.588,-0.64
36.592,-0.65
36.596,-0.67
36.6,-0.71
36.604,-0.74
36.608,-0.72
36.612,-0.725
36.616,-0.725
36.62,-0.77
36.624,-0.785
36.628,-0.805
36.632,-0.845
36.636,-0.865
36.64,-0.85
36.644,-0.86
36.648,-0.875
36.652,-0.86
36.656,-0.83
36.66,-0.815
36.664,-0.79
36.668,-0.735
36.672,-0.72
36.676,-0.695
36.68,-0.64
36.684,-0.605
36.688,-0.55
36.692,-0.54
36.696,-0.52
36.7,-0.445
36.704,-0.415
36.708,-0.375
36.712,-0.37
36.716,-0.345
36.72,-0.345
36.724,-0.385
36.728,-0.385
36.732,-0.385
36.736,-0.355
36.74,-0.375
36.744,-0.375
36.748,-0.385
36.752,-0.38
36.756,-0.4
36.76,-0.4
36.764,-0.395
36.768,-0.425
36.772,-0.425
36.776,-0.44
36.78,-0.46
36.784,-0.465
36.788,-0.445
36.792,-0.43
36.796,-0.435
36.8,-0.425
36.804,-0.415
36.808,-0.455
36.812,-0.47
36.816,-0.485
36.82,-0.47
36.824,-0.46
36.828,-0.455
36.832,-0.46
36.836,-0.475
36.84,-0.475
36.844,-0.475
36.848,-0.45
36.852,-0.49
36.856,-0.5
36.86,-0.51
36.864,-0.515
36.868,-0.53
36.872,-0.52
36.876,-0.505
36.88,-0.505
36.884,-0.475
36.888,-0.47
36.892,-0.495
36.896,-0.5
36.9,-0.525
36.904,-0.52
36.908,-0.525
36.912,-0.51
36.916,-0.51
36.92,-0.51
36.924,-0.49
36.928,-0.48
36.932,-0.475
36.936,-0.465
36.94,-0.49
36.944,-0.515
36.948,-0.51
36.952,-0.535
36.956,-0.535
36.96,-0.515
36.964,-0.515
36.968,-0.5
36.972,-0.48
36.976,-0.465
36.98,-0.48
36.984,-0.46
36.988,-0.49
36.992,-0.515
36.996,-0.52
37.0,-0.52
37.004,-0.525
37.008,-0.52
37.012,-0.505
37.016,-0.505
37.02,-0.48
37.024,-0.49
37.028,-0.515
37.032,-0.515
37.036,-0.52
37.04,-0.51
37.044,-0.52
37.048,-0.52
37.052,-0.515
37.056,-0.525
37.06,-0.495
37.064,-0.48
37.068,-0.485
37.072,-0.475
37.076,-0.495
37.08,-0.515
37.084,-0.52
37.088,-0.5
37.092,-0.52
37.096,-0.515
37.1,-0.51
37.104,-0.5
37.108,-0.47
37.112,-0.475
37.116,-0.485
37.12,-0.49
37.124,-0.51
37.128,-0.495
37.132,-0.5
37.136,-0.5
37.14,-0.495
37.144,-0.495
37.148,-0.465
37.152,-0.47
37.156,-0.48
37.16,-0.475
37.164,-0.47
37.168,-0.485
37.172,-0.48
37.176,-0.48
37.18,-0.485
37.184,-0.475
37.188,-0.47
37.192,-0.46
37.196,-0.455
37.2,-0.465
37.204,-0.445
37.208,-0.46
37.212,-0.46
37.216,-0.475
37.22,-0.485
37.224,-0.48
37.228,-0.48
37.232,-0.455
37.236,-0.44
37.24,-0.43
37.244,-0.445
37.248,-0.455
37.252,-0.43
37.256,-0.44
37.26,-0.475
37.264,-0.49
37.268,-0.46
37.272,-0.465
37.276,-0.46
37.28,-0.43
37.284,-0.425
37.288,-0.425
37.292,-0.44
37.296,-0.43
37.3,-0.43
37.304,-0.445
37.308,-0.455
37.312,-0.46
37.316,-0.455
37.32,-0.435
37.324,-0.42
37.328,-0.43
37.332,-0.415
37.336,-0.42
37.34,-0.405
37.344,-0.425
37.348,-0.45
37.352,-0.45
37.356,-0.435
37.36,-0.46
37.364,-0.44
37.368,-0.425
37.372,-0.4
37.376,-0.39
37.38,-0.395
37.384,-0.415
37.388,-0.415
37.392,-0.415
37.396,-0.425
37.4,-0.445
37.404,-0.415
37.408,-0.435
37.412,-0.435
37.416,-0.405
37.42,-0.375
37.424,-0.37
37.428,-0.38
37.432,-0.385
37.436,-0.405
37.44,-0.42
37.444,-0.425
37.448,-0.405
37.452,-0.4
37.456,-0.38
37.46,-0.345
37.464,-0.295
37.468,-0.255
37.472,-0.245
37.476,-0.26
37.48,-0.275
37.484,-0.27
37.488,-0.26
37.492,-0.24
37.496,-0.24
37.5,-0.205
37.504,-0.19
37.508,-0.175
37.512,-0.22
37.516,-0.24
37.52,-0.27
37.524,-0.31
37.528,-0.365
37.532,-0.415
37.536,-0.42
37.54,-0.47
37.544,-0.46
37.548,-0.46
37.552,-0.45
37.556,-0.42
37.56,-0.415
37.564,-0.42
