time,amplitude
0.0,0.175
0.002777777777777778,0.175
0.005555555555555556,0.175
0.008333333333333333,0.175
0.011111111111111112,0.175
0.013888888888888888,0.175
0.016666666666666666,0.175
0.019444444444444445,0.175
0.022222222222222223,0.175
0.025,0.18
0.027777777777777776,0.185
0.030555555555555555,0.21
0.03333333333333333,0.23
0.03611111111111111,0.22
0.03888888888888889,0.195
0.041666666666666664,0.16
0.044444444444444446,0.095
0.04722222222222222,0.06
0.05,0.085
0.05277777777777778,0.15
0.05555555555555555,0.195
0.058333333333333334,0.16
0.06111111111111111,0.065
0.06388888888888888,0.055
0.06666666666666667,0.12
0.06944444444444445,0.22
0.07222222222222222,0.24
0.075,0.2
0.07777777777777778,0.16
0.08055555555555556,0.14
0.08333333333333333,0.14
0.08611111111111111,0.125
0.08888888888888889,0.11
0.09166666666666666,0.1
0.09444444444444444,0.11
0.09722222222222222,0.135
0.1,0.14
0.10277777777777777,0.105
0.10555555555555556,0.055
0.10833333333333334,0.03
0.1111111111111111,0.01
0.11388888888888889,0.015
0.11666666666666667,-0.015
0.11944444444444445,-0.035
0.12222222222222222,-0.06
0.125,-0.09
0.12777777777777777,-0.125
0.13055555555555556,-0.125
0.13333333333333333,-0.11
0.1361111111111111,-0.11
0.1388888888888889,-0.11
0.14166666666666666,-0.13
0.14444444444444443,-0.13
0.14722222222222223,-0.135
0.15,-0.14
0.1527777777777778,-0.15
0.15555555555555556,-0.175
0.15833333333333333,-0.16
0.16111111111111112,-0.165
0.1638888888888889,-0.17
0.16666666666666666,-0.185
0.16944444444444445,-0.195
0.17222222222222222,-0.18
0.175,-0.165
0.17777777777777778,-0.175
0.18055555555555555,-0.2
0.18333333333333332,-0.215
0.18611111111111112,-0.215
0.18888888888888888,-0.185
0.19166666666666668,-0.17
0.19444444444444445,-0.19
0.19722222222222222,-0.23
0.2,-0.23
0.20277777777777778,-0.21
0.20555555555555555,-0.175
0.20833333333333334,-0.16
0.2111111111111111,-0.17
0.21388888888888888,-0.19
0.21666666666666667,-0.195
0.21944444444444444,-0.19
0.2222222222222222,-0.165
0.225,-0.16
0.22777777777777777,-0.18
0.23055555555555557,-0.19
0.23333333333333334,-0.175
0.2361111111111111,-0.18
0.2388888888888889,-0.175
0.24166666666666667,-0.195
0.24444444444444444,-0.2
0.24722222222222223,-0.18
0.25,-0.185
0.25277777777777777,-0.195
0.25555555555555554,-0.21
0.25833333333333336,-0.245
0.2611111111111111,-0.24
0.2638888888888889,-0.185
0.26666666666666666,-0.08
0.26944444444444443,0.025
0.2722222222222222,0.11
0.275,0.17
0.2777777777777778,0.2
0.28055555555555556,0.205
0.2833333333333333,0.235
0.2861111111111111,0.33
0.28888888888888886,0.425
0.2916666666666667,0.535
0.29444444444444445,0.6
0.2972222222222222,0.63
0.3,0.61
0.30277777777777776,0.575
0.3055555555555556,0.55
0.30833333333333335,0.535
0.3111111111111111,0.52
0.3138888888888889,0.49
0.31666666666666665,0.445
0.3194444444444444,0.39
0.32222222222222224,0.33
0.325,0.27
0.3277777777777778,0.22
0.33055555555555555,0.175
0.3333333333333333,0.095
0.33611111111111114,-0.02
0.3388888888888889,-0.145
0.3416666666666667,-0.28
0.34444444444444444,-0.405
0.3472222222222222,-0.49
0.35,-0.545
0.3527777777777778,-0.57
0.35555555555555557,-0.62
0.35833333333333334,-0.66
0.3611111111111111,-0.7
0.3638888888888889,-0.69
0.36666666666666664,-0.67
0.36944444444444446,-0.66
0.37222222222222223,-0.655
0.375,-0.66
0.37777777777777777,-0.64
0.38055555555555554,-0.615
0.38333333333333336,-0.595
0.3861111111111111,-0.59
0.3888888888888889,-0.575
0.39166666666666666,-0.58
0.39444444444444443,-0.58
0.3972222222222222,-0.56
0.4,-0.515
0.4027777777777778,-0.485
0.40555555555555556,-0.475
0.4083333333333333,-0.485
0.4111111111111111,-0.485
0.41388888888888886,-0.465
0.4166666666666667,-0.46
0.41944444444444445,-0.46
0.4222222222222222,-0.46
0.425,-0.47
0.42777777777777776,-0.475
0.4305555555555556,-0.465
0.43333333333333335,-0.47
0.4361111111111111,-0.485
0.4388888888888889,-0.485
0.44166666666666665,-0.505
0.4444444444444444,-0.505
0.44722222222222224,-0.5
0.45,-0.49
0.4527777777777778,-0.49
0.45555555555555555,-0.495
0.4583333333333333,-0.505
0.46111111111111114,-0.53
0.4638888888888889,-0.53
0.4666666666666667,-0.52
0.46944444444444444,-0.5
0.4722222222222222,-0.495
0.475,-0.505
0.4777777777777778,-0.52
0.48055555555555557,-0.515
0.48333333333333334,-0.505
0.4861111111111111,-0.505
0.4888888888888889,-0.515
0.49166666666666664,-0.515
0.49444444444444446,-0.52
0.49722222222222223,-0.5
0.5,-0.485
0.5027777777777778,-0.495
0.5055555555555555,-0.49
0.5083333333333333,-0.485
0.5111111111111111,-0.48
0.5138888888888888,-0.48
0.5166666666666667,-0.48
0.5194444444444445,-0.455
0.5222222222222223,-0.45
0.525,-0.435
0.5277777777777778,-0.445
0.5305555555555556,-0.415
0.5333333333333333,-0.415
0.5361111111111111,-0.405
0.5388888888888889,-0.395
0.5416666666666666,-0.385
0.5444444444444444,-0.385
0.5472222222222223,-0.37
0.55,-0.35
0.5527777777777778,-0.35
0.5555555555555556,-0.365
0.5583333333333333,-0.375
0.5611111111111111,-0.35
0.5638888888888889,-0.305
0.5666666666666667,-0.265
0.5694444444444444,-0.255
0.5722222222222222,-0.275
0.575,-0.285
0.5777777777777777,-0.28
0.5805555555555556,-0.24
0.5833333333333334,-0.21
0.5861111111111111,-0.215
0.5888888888888889,-0.225
0.5916666666666667,-0.22
0.5944444444444444,-0.24
0.5972222222222222,-0.23
0.6,-0.2
0.6027777777777777,-0.19
0.6055555555555555,-0.18
0.6083333333333333,-0.185
0.6111111111111112,-0.195
0.6138888888888889,-0.185
0.6166666666666667,-0.155
0.6194444444444445,-0.16
0.6222222222222222,-0.175
0.625,-0.185
0.6277777777777778,-0.185
0.6305555555555555,-0.18
0.6333333333333333,-0.17
0.6361111111111111,-0.17
0.6388888888888888,-0.18
0.6416666666666667,-0.175
0.6444444444444445,-0.165
0.6472222222222223,-0.145
0.65,-0.125
0.6527777777777778,-0.125
0.6555555555555556,-0.135
0.6583333333333333,-0.16
0.6611111111111111,-0.185
0.6638888888888889,-0.195
0.6666666666666666,-0.16
0.6694444444444444,-0.145
0.6722222222222223,-0.15
0.675,-0.18
0.6777777777777778,-0.21
0.6805555555555556,-0.19
0.6833333333333333,-0.18
0.6861111111111111,-0.185
0.6888888888888889,-0.215
0.6916666666666667,-0.235
0.6944444444444444,-0.24
0.6972222222222222,-0.2
0.7,-0.16
0.7027777777777777,-0.145
0.7055555555555556,-0.175
0.7083333333333334,-0.195
0.7111111111111111,-0.2
0.7138888888888889,-0.19
0.7166666666666667,-0.17
0.7194444444444444,-0.185
0.7222222222222222,-0.205
0.725,-0.22
0.7277777777777777,-0.215
0.7305555555555555,-0.195
0.7333333333333333,-0.185
0.7361111111111112,-0.195
0.7388888888888889,-0.21
0.7416666666666667,-0.24
0.7444444444444445,-0.265
0.7472222222222222,-0.275
0.75,-0.295
0.7527777777777778,-0.32
0.7555555555555555,-0.355
0.7583333333333333,-0.375
0.7611111111111111,-0.405
0.7638888888888888,-0.425
0.7666666666666667,-0.435
0.7694444444444445,-0.45
0.7722222222222223,-0.44
0.775,-0.44
0.7777777777777778,-0.44
0.7805555555555556,-0.43
0.7833333333333333,-0.42
0.7861111111111111,-0.43
0.7888888888888889,-0.435
0.7916666666666666,-0.455
0.7944444444444444,-0.47
0.7972222222222223,-0.475
0.8,-0.455
0.8027777777777778,-0.46
0.8055555555555556,-0.465
0.8083333333333333,-0.485
0.8111111111111111,-0.485
0.8138888888888889,-0.47
0.8166666666666667,-0.455
0.8194444444444444,-0.45
0.8222222222222222,-0.46
0.825,-0.46
0.8277777777777777,-0.45
0.8305555555555556,-0.44
0.8333333333333334,-0.435
0.8361111111111111,-0.455
0.8388888888888889,-0.475
0.8416666666666667,-0.48
0.8444444444444444,-0.475
0.8472222222222222,-0.445
0.85,-0.43
0.8527777777777777,-0.47
0.8555555555555555,-0.49
0.8583333333333333,-0.505
0.8611111111111112,-0.485
0.8638888888888889,-0.445
0.8666666666666667,-0.425
0.8694444444444445,-0.43
0.8722222222222222,-0.45
0.875,-0.47
0.8777777777777778,-0.465
0.8805555555555555,-0.455
0.8833333333333333,-0.44
0.8861111111111111,-0.46
0.8888888888888888,-0.485
0.8916666666666667,-0.485
0.8944444444444445,-0.495
0.8972222222222223,-0.485
0.9,-0.495
0.9027777777777778,-0.495
0.9055555555555556,-0.485
0.9083333333333333,-0.415
0.9111111111111111,-0.315
0.9138888888888889,-0.205
0.9166666666666666,-0.125
0.9194444444444444,-0.085
0.9222222222222223,-0.05
0.925,-0.035
0.9277777777777778,0.03
0.9305555555555556,0.14
0.9333333333333333,0.255
0.9361111111111111,0.315
0.9388888888888889,0.37
0.9416666666666667,0.395
0.9444444444444444,0.4
0.9472222222222222,0.39
0.95,0.395
0.9527777777777777,0.365
0.9555555555555556,0.345
0.9583333333333334,0.29
0.9611111111111111,0.22
0.9638888888888889,0.19
0.9666666666666667,0.17
0.9694444444444444,0.105
0.9722222222222222,0.02
0.975,-0.065
0.9777777777777777,-0.17
0.9805555555555555,-0.305
0.9833333333333333,-0.415
0.9861111111111112,-0.555
0.9888888888888889,-0.665
0.9916666666666667,-0.75
0.9944444444444445,-0.805
0.9972222222222222,-0.845
1.0,-0.885
1.0027777777777778,-0.91
1.0055555555555555,-0.905
1.0083333333333333,-0.91
1.011111111111111,-0.925
1.0138888888888888,-0.905
1.0166666666666666,-0.88
1.0194444444444444,-0.85
1.0222222222222221,-0.84
1.025,-0.83
1.0277777777777777,-0.83
1.0305555555555554,-0.81
1.0333333333333334,-0.77
1.0361111111111112,-0.76
1.038888888888889,-0.745
1.0416666666666667,-0.73
1.0444444444444445,-0.71
1.0472222222222223,-0.71
1.05,-0.68
1.0527777777777778,-0.69
1.0555555555555556,-0.69
1.0583333333333333,-0.695
1.0611111111111111,-0.695
1.0638888888888889,-0.7
1.0666666666666667,-0.69
1.0694444444444444,-0.695
1.0722222222222222,-0.71
1.075,-0.705
1.0777777777777777,-0.715
1.0805555555555555,-0.715
1.0833333333333333,-0.71
1.086111111111111,-0.72
1.0888888888888888,-0.725
1.0916666666666666,-0.735
1.0944444444444446,-0.735
1.0972222222222223,-0.715
1.1,-0.71
1.1027777777777779,-0.72
1.1055555555555556,-0.735
1.1083333333333334,-0.75
1.1111111111111112,-0.755
1.113888888888889,-0.74
1.1166666666666667,-0.72
1.1194444444444445,-0.73
1.1222222222222222,-0.735
1.125,-0.735
1.1277777777777778,-0.74
1.1305555555555555,-0.73
1.1333333333333333,-0.7
1.136111111111111,-0.71
1.1388888888888888,-0.71
1.1416666666666666,-0.715
1.1444444444444444,-0.72
1.1472222222222221,-0.695
1.15,-0.675
1.1527777777777777,-0.665
1.1555555555555554,-0.655
1.1583333333333334,-0.665
1.1611111111111112,-0.66
1.163888888888889,-0.655
1.1666666666666667,-0.625
1.1694444444444445,-0.605
1.1722222222222223,-0.605
1.175,-0.605
1.1777777777777778,-0.605
1.1805555555555556,-0.59
1.1833333333333333,-0.555
1.1861111111111111,-0.535
1.1888888888888889,-0.53
1.1916666666666667,-0.525
1.1944444444444444,-0.53
1.1972222222222222,-0.505
1.2,-0.47
1.2027777777777777,-0.455
1.2055555555555555,-0.46
1.2083333333333333,-0.455
1.211111111111111,-0.45
1.2138888888888888,-0.42
1.2166666666666666,-0.4
1.2194444444444446,-0.4
1.2222222222222223,-0.39
1.225,-0.39
1.2277777777777779,-0.39
1.2305555555555556,-0.38
1.2333333333333334,-0.37
1.2361111111111112,-0.365
1.238888888888889,-0.37
1.2416666666666667,-0.365
1.2444444444444445,-0.355
1.2472222222222222,-0.345
1.25,-0.315
1.2527777777777778,-0.315
1.2555555555555555,-0.32
1.2583333333333333,-0.34
1.261111111111111,-0.345
1.2638888888888888,-0.34
1.2666666666666666,-0.315
1.2694444444444444,-0.31
1.2722222222222221,-0.295
1.275,-0.285
1.2777777777777777,-0.27
1.2805555555555554,-0.27
1.2833333333333334,-0.295
1.2861111111111112,-0.31
1.288888888888889,-0.32
1.2916666666666667,-0.34
1.2944444444444445,-0.36
1.2972222222222223,-0.365
1.3,-0.36
1.3027777777777778,-0.36
1.3055555555555556,-0.355
1.3083333333333333,-0.36
1.3111111111111111,-0.36
1.3138888888888889,-0.335
1.3166666666666667,-0.31
1.3194444444444444,-0.31
1.3222222222222222,-0.295
1.325,-0.3
1.3277777777777777,-0.29
1.3305555555555555,-0.31
1.3333333333333333,-0.335
1.336111111111111,-0.365
1.3388888888888888,-0.375
1.3416666666666666,-0.4
1.3444444444444446,-0.4
1.3472222222222223,-0.39
1.35,-0.37
1.3527777777777779,-0.385
1.3555555555555556,-0.375
1.3583333333333334,-0.385
1.3611111111111112,-0.39
1.363888888888889,-0.385
1.3666666666666667,-0.375
1.3694444444444445,-0.41
1.3722222222222222,-0.455
1.375,-0.49
1.3777777777777778,-0.535
1.3805555555555555,-0.55
1.3833333333333333,-0.57
1.386111111111111,-0.59
1.3888888888888888,-0.605
1.3916666666666666,-0.62
1.3944444444444444,-0.62
1.3972222222222221,-0.61
1.4,-0.595
1.4027777777777777,-0.615
1.4055555555555554,-0.61
1.4083333333333334,-0.62
1.4111111111111112,-0.615
1.413888888888889,-0.62
1.4166666666666667,-0.615
1.4194444444444445,-0.64
1.4222222222222223,-0.655
1.425,-0.665
1.4277777777777778,-0.665
1.4305555555555556,-0.645
1.4333333333333333,-0.63
1.4361111111111111,-0.63
1.4388888888888889,-0.64
1.4416666666666667,-0.64
1.4444444444444444,-0.635
1.4472222222222222,-0.59
1.45,-0.57
1.4527777777777777,-0.57
1.4555555555555555,-0.59
1.4583333333333333,-0.615
1.461111111111111,-0.625
1.4638888888888888,-0.625
1.4666666666666666,-0.63
1.4694444444444446,-0.63
1.4722222222222223,-0.605
1.475,-0.61
1.4777777777777779,-0.605
1.4805555555555556,-0.62
1.4833333333333334,-0.61
1.4861111111111112,-0.59
1.488888888888889,-0.555
1.4916666666666667,-0.54
1.4944444444444445,-0.54
1.4972222222222222,-0.575
1.5,-0.59
1.5027777777777778,-0.62
1.5055555555555555,-0.655
1.5083333333333333,-0.665
1.511111111111111,-0.68
1.5138888888888888,-0.645
1.5166666666666666,-0.6
1.5194444444444444,-0.62
1.5222222222222221,-0.655
1.525,-0.72
1.5277777777777777,-0.74
1.5305555555555554,-0.74
1.5333333333333334,-0.72
1.5361111111111112,-0.665
1.538888888888889,-0.575
1.5416666666666667,-0.445
1.5444444444444445,-0.34
1.5472222222222223,-0.23
1.55,-0.145
1.5527777777777778,-0.095
1.5555555555555556,-0.05
1.5583333333333333,-0.005
1.5611111111111111,0.075
1.5638888888888889,0.2
1.5666666666666667,0.305
1.5694444444444444,0.41
1.5722222222222222,0.5
1.575,0.56
1.5777777777777777,0.59
1.5805555555555555,0.585
1.5833333333333333,0.585
1.586111111111111,0.555
1.5888888888888888,0.535
1.5916666666666666,0.48
1.5944444444444446,0.385
1.5972222222222223,0.31
1.6,0.225
1.6027777777777779,0.16
1.6055555555555556,0.085
1.6083333333333334,0.035
1.6111111111111112,-0.05
1.613888888888889,-0.185
1.6166666666666667,-0.365
1.6194444444444445,-0.575
1.6222222222222222,-0.76
1.625,-0.905
1.6277777777777778,-1.025
1.6305555555555555,-1.11
1.6333333333333333,-1.15
1.636111111111111,-1.19
1.6388888888888888,-1.205
1.6416666666666666,-1.2
1.6444444444444444,-1.205
1.6472222222222221,-1.18
1.65,-1.165
1.6527777777777777,-1.15
1.6555555555555554,-1.125
1.6583333333333334,-1.14
1.6611111111111112,-1.155
1.663888888888889,-1.165
1.6666666666666667,-1.155
1.6694444444444445,-1.13
1.6722222222222223,-1.095
1.675,-1.06
1.6777777777777778,-1.01
1.6805555555555556,-0.98
1.6833333333333333,-0.965
1.6861111111111111,-0.975
1.6888888888888889,-0.98
1.6916666666666667,-0.995
1.6944444444444444,-0.99
1.6972222222222222,-0.985
1.7,-0.975
1.7027777777777777,-0.98
1.7055555555555555,-0.96
1.7083333333333333,-0.925
1.711111111111111,-0.915
1.7138888888888888,-0.91
1.7166666666666666,-0.935
1.7194444444444446,-0.985
1.7222222222222223,-1.005
1.725,-1.03
1.7277777777777779,-1.055
1.7305555555555556,-1.06
1.7333333333333334,-1.07
1.7361111111111112,-1.075
1.738888888888889,-1.08
1.7416666666666667,-1.085
1.7444444444444445,-1.08
1.7472222222222222,-1.055
1.75,-1.04
1.7527777777777778,-1.04
1.7555555555555555,-1.025
1.7583333333333333,-1.035
1.761111111111111,-1.04
1.7638888888888888,-1.03
1.7666666666666666,-1.025
1.7694444444444444,-1.01
1.7722222222222221,-1.01
1.775,-1.01
1.7777777777777777,-1.01
1.7805555555555554,-0.995
1.7833333333333334,-0.98
1.7861111111111112,-0.995
1.788888888888889,-1.005
1.7916666666666667,-1.015
1.7944444444444445,-1.0
1.7972222222222223,-0.95
1.8,-0.915
1.8027777777777778,-0.875
1.8055555555555556,-0.885
1.8083333333333333,-0.935
1.8111111111111111,-0.96
1.8138888888888889,-0.955
1.8166666666666667,-0.925
1.8194444444444444,-0.875
1.8222222222222222,-0.835
1.825,-0.835
1.8277777777777777,-0.855
1.8305555555555555,-0.865
1.8333333333333333,-0.88
1.836111111111111,-0.88
1.8388888888888888,-0.87
1.8416666666666666,-0.835
1.8444444444444446,-0.815
1.8472222222222223,-0.8
1.85,-0.78
1.8527777777777779,-0.76
1.8555555555555556,-0.74
1.8583333333333334,-0.72
1.8611111111111112,-0.72
1.863888888888889,-0.71
1.8666666666666667,-0.69
1.8694444444444445,-0.685
1.8722222222222222,-0.675
1.875,-0.685
1.8777777777777778,-0.635
1.8805555555555555,-0.6
1.8833333333333333,-0.565
1.886111111111111,-0.57
1.8888888888888888,-0.595
1.8916666666666666,-0.605
1.8944444444444444,-0.59
1.8972222222222221,-0.555
1.9,-0.545
1.9027777777777777,-0.555
1.9055555555555554,-0.56
1.9083333333333334,-0.565
1.9111111111111112,-0.58
1.913888888888889,-0.57
1.9166666666666667,-0.55
1.9194444444444445,-0.515
1.9222222222222223,-0.465
1.925,-0.46
1.9277777777777778,-0.465
1.9305555555555556,-0.495
1.9333333333333333,-0.545
1.9361111111111111,-0.58
1.9388888888888889,-0.57
1.9416666666666667,-0.565
1.9444444444444444,-0.55
1.9472222222222222,-0.51
1.95,-0.5
1.9527777777777777,-0.515
1.9555555555555555,-0.58
1.9583333333333333,-0.615
1.961111111111111,-0.605
1.9638888888888888,-0.56
1.9666666666666666,-0.54
1.9694444444444446,-0.55
1.9722222222222223,-0.6
1.975,-0.64
1.9777777777777779,-0.66
1.9805555555555556,-0.64
1.9833333333333334,-0.605
1.9861111111111112,-0.595
1.988888888888889,-0.575
1.9916666666666667,-0.58
1.9944444444444445,-0.615
1.9972222222222222,-0.63
2.0,-0.625
2.0027777777777778,-0.61
2.0055555555555555,-0.6
2.0083333333333333,-0.61
2.011111111111111,-0.63
2.013888888888889,-0.62
2.0166666666666666,-0.61
2.0194444444444444,-0.615
2.022222222222222,-0.635
2.025,-0.665
2.0277777777777777,-0.705
2.0305555555555554,-0.735
2.033333333333333,-0.765
2.036111111111111,-0.81
2.0388888888888888,-0.815
2.0416666666666665,-0.815
2.0444444444444443,-0.805
2.047222222222222,-0.795
2.05,-0.815
2.0527777777777776,-0.86
2.0555555555555554,-0.885
2.058333333333333,-0.885
2.061111111111111,-0.855
2.063888888888889,-0.83
2.066666666666667,-0.82
2.0694444444444446,-0.845
2.0722222222222224,-0.87
2.075,-0.845
2.077777777777778,-0.82
2.0805555555555557,-0.805
2.0833333333333335,-0.82
2.0861111111111112,-0.84
2.088888888888889,-0.865
2.091666666666667,-0.855
2.0944444444444446,-0.86
2.0972222222222223,-0.85
2.1,-0.8
2.102777777777778,-0.775
2.1055555555555556,-0.77
2.1083333333333334,-0.795
2.111111111111111,-0.845
2.113888888888889,-0.87
2.1166666666666667,-0.87
2.1194444444444445,-0.875
2.1222222222222222,-0.89
2.125,-0.915
2.1277777777777778,-0.915
2.1305555555555555,-0.89
2.1333333333333333,-0.85
2.136111111111111,-0.84
2.138888888888889,-0.855
2.1416666666666666,-0.88
2.1444444444444444,-0.895
2.147222222222222,-0.9
2.15,-0.865
2.1527777777777777,-0.85
2.1555555555555554,-0.855
2.158333333333333,-0.86
2.161111111111111,-0.895
2.1638888888888888,-0.91
2.1666666666666665,-0.885
2.1694444444444443,-0.85
2.172222222222222,-0.83
2.175,-0.84
2.1777777777777776,-0.85
2.1805555555555554,-0.86
2.183333333333333,-0.87
2.186111111111111,-0.9
2.188888888888889,-0.93
2.191666666666667,-0.965
2.1944444444444446,-0.93
2.1972222222222224,-0.83
2.2,-0.655
2.202777777777778,-0.48
2.2055555555555557,-0.36
2.2083333333333335,-0.295
2.2111111111111112,-0.23
2.213888888888889,-0.2
2.216666666666667,-0.18
2.2194444444444446,-0.145
2.2222222222222223,-0.08
2.225,-0.025
2.227777777777778,0.06
2.2305555555555556,0.145
2.2333333333333334,0.205
2.236111111111111,0.21
2.238888888888889,0.185
2.2416666666666667,0.14
2.2444444444444445,0.1
2.2472222222222222,0.075
2.25,0.05
2.2527777777777778,-0.015
2.2555555555555555,-0.095
2.2583333333333333,-0.175
2.261111111111111,-0.24
2.263888888888889,-0.295
2.2666666666666666,-0.355
2.2694444444444444,-0.45
2.272222222222222,-0.545
2.275,-0.67
2.2777777777777777,-0.84
2.2805555555555554,-0.995
2.283333333333333,-1.13
2.286111111111111,-1.24
2.2888888888888888,-1.345
2.2916666666666665,-1.46
2.2944444444444443,-1.525
2.297222222222222,-1.555
2.3,-1.575
2.3027777777777776,-1.58
2.3055555555555554,-1.565
2.308333333333333,-1.545
2.311111111111111,-1.505
2.313888888888889,-1.495
2.316666666666667,-1.465
2.3194444444444446,-1.47
2.3222222222222224,-1.45
2.325,-1.43
2.327777777777778,-1.405
2.3305555555555557,-1.375
2.3333333333333335,-1.325
2.3361111111111112,-1.3
2.338888888888889,-1.3
2.341666666666667,-1.295
2.3444444444444446,-1.27
2.3472222222222223,-1.24
2.35,-1.205
2.352777777777778,-1.19
2.3555555555555556,-1.16
2.3583333333333334,-1.155
2.361111111111111,-1.145
2.363888888888889,-1.13
2.3666666666666667,-1.1
2.3694444444444445,-1.105
2.3722222222222222,-1.115
2.375,-1.12
2.3777777777777778,-1.12
2.3805555555555555,-1.11
2.3833333333333333,-1.1
2.386111111111111,-1.1
2.388888888888889,-1.12
2.3916666666666666,-1.115
2.3944444444444444,-1.11
2.397222222222222,-1.1
2.4,-1.095
2.4027777777777777,-1.095
2.4055555555555554,-1.095
2.408333333333333,-1.1
2.411111111111111,-1.095
2.4138888888888888,-1.1
2.4166666666666665,-1.095
2.4194444444444443,-1.11
2.422222222222222,-1.11
2.425,-1.11
2.4277777777777776,-1.1
2.4305555555555554,-1.09
2.433333333333333,-1.08
2.436111111111111,-1.085
2.438888888888889,-1.09
2.441666666666667,-1.09
2.4444444444444446,-1.085
2.4472222222222224,-1.07
2.45,-1.06
2.452777777777778,-1.065
2.4555555555555557,-1.07
2.4583333333333335,-1.07
2.4611111111111112,-1.07
2.463888888888889,-1.045
2.466666666666667,-1.02
2.4694444444444446,-1.02
2.4722222222222223,-1.03
2.475,-1.02
2.477777777777778,-1.03
2.4805555555555556,-0.99
2.4833333333333334,-0.965
2.486111111111111,-0.96
2.488888888888889,-0.965
2.4916666666666667,-0.955
2.4944444444444445,-0.96
2.4972222222222222,-0.93
2.5,-0.9
2.5027777777777778,-0.905
2.5055555555555555,-0.89
2.5083333333333333,-0.885
2.511111111111111,-0.865
2.513888888888889,-0.855
2.5166666666666666,-0.835
2.5194444444444444,-0.825
2.522222222222222,-0.82
2.525,-0.815
2.5277777777777777,-0.805
2.5305555555555554,-0.79
2.533333333333333,-0.76
2.536111111111111,-0.755
2.5388888888888888,-0.735
2.5416666666666665,-0.74
2.5444444444444443,-0.725
2.547222222222222,-0.72
2.55,-0.7
2.5527777777777776,-0.69
2.5555555555555554,-0.675
2.558333333333333,-0.675
2.561111111111111,-0.675
2.563888888888889,-0.655
2.566666666666667,-0.635
2.5694444444444446,-0.635
2.5722222222222224,-0.64
2.575,-0.645
2.577777777777778,-0.64
2.5805555555555557,-0.625
2.5833333333333335,-0.615
2.5861111111111112,-0.6
2.588888888888889,-0.61
2.591666666666667,-0.61
2.5944444444444446,-0.6
2.5972222222222223,-0.575
2.6,-0.57
2.602777777777778,-0.575
2.6055555555555556,-0.57
2.6083333333333334,-0.575
2.611111111111111,-0.565
2.613888888888889,-0.555
2.6166666666666667,-0.56
2.6194444444444445,-0.56
2.6222222222222222,-0.55
2.625,-0.575
2.6277777777777778,-0.585
2.6305555555555555,-0.595
2.6333333333333333,-0.61
2.636111111111111,-0.6
2.638888888888889,-0.6
2.6416666666666666,-0.59
2.6444444444444444,-0.58
2.647222222222222,-0.57
2.65,-0.55
2.6527777777777777,-0.545
2.6555555555555554,-0.55
2.658333333333333,-0.565
2.661111111111111,-0.57
2.6638888888888888,-0.555
2.6666666666666665,-0.54
2.6694444444444443,-0.555
2.672222222222222,-0.575
2.675,-0.585
2.6777777777777776,-0.585
2.6805555555555554,-0.585
2.683333333333333,-0.57
2.686111111111111,-0.56
2.688888888888889,-0.565
2.691666666666667,-0.58
2.6944444444444446,-0.59
2.6972222222222224,-0.6
2.7,-0.615
2.702777777777778,-0.65
2.7055555555555557,-0.695
2.7083333333333335,-0.735
2.7111111111111112,-0.77
2.713888888888889,-0.785
2.716666666666667,-0.79
2.7194444444444446,-0.82
2.7222222222222223,-0.84
2.725,-0.86
2.727777777777778,-0.865
2.7305555555555556,-0.87
2.7333333333333334,-0.88
2.736111111111111,-0.87
2.738888888888889,-0.88
2.7416666666666667,-0.885
2.7444444444444445,-0.89
2.7472222222222222,-0.865
2.75,-0.855
2.7527777777777778,-0.87
2.7555555555555555,-0.87
2.7583333333333333,-0.87
2.761111111111111,-0.87
2.763888888888889,-0.865
2.7666666666666666,-0.855
2.7694444444444444,-0.85
2.772222222222222,-0.86
2.775,-0.85
2.7777777777777777,-0.845
2.7805555555555554,-0.83
2.783333333333333,-0.84
2.786111111111111,-0.835
2.7888888888888888,-0.835
2.7916666666666665,-0.83
2.7944444444444443,-0.825
2.797222222222222,-0.815
2.8,-0.815
2.8027777777777776,-0.815
2.8055555555555554,-0.83
2.808333333333333,-0.815
2.811111111111111,-0.825
2.813888888888889,-0.8
2.816666666666667,-0.795
2.8194444444444446,-0.815
2.8222222222222224,-0.82
2.825,-0.81
2.827777777777778,-0.8
2.8305555555555557,-0.79
2.8333333333333335,-0.795
2.8361111111111112,-0.805
2.838888888888889,-0.8
2.841666666666667,-0.8
2.8444444444444446,-0.81
2.8472222222222223,-0.815
2.85,-0.815
2.852777777777778,-0.83
2.8555555555555556,-0.845
2.8583333333333334,-0.83
2.861111111111111,-0.78
2.863888888888889,-0.675
2.8666666666666667,-0.58
2.8694444444444445,-0.485
2.8722222222222222,-0.4
2.875,-0.35
2.8777777777777778,-0.33
2.8805555555555555,-0.295
2.8833333333333333,-0.25
2.886111111111111,-0.155
2.888888888888889,-0.07
2.8916666666666666,-0.01
2.8944444444444444,0.08
2.897222222222222,0.135
2.9,0.145
2.9027777777777777,0.13
2.9055555555555554,0.125
2.908333333333333,0.115
2.911111111111111,0.115
2.9138888888888888,0.1
2.9166666666666665,0.045
2.9194444444444443,-0.01
2.922222222222222,-0.085
2.925,-0.13
2.9277777777777776,-0.16
2.9305555555555554,-0.21
2.933333333333333,-0.275
2.936111111111111,-0.385
2.938888888888889,-0.495
2.941666666666667,-0.63
2.9444444444444446,-0.75
2.9472222222222224,-0.86
2.95,-1.01
2.952777777777778,-1.115
2.9555555555555557,-1.19
2.9583333333333335,-1.23
2.9611111111111112,-1.23
2.963888888888889,-1.24
2.966666666666667,-1.24
2.9694444444444446,-1.245
2.9722222222222223,-1.235
2.975,-1.24
2.977777777777778,-1.24
2.9805555555555556,-1.22
2.9833333333333334,-1.195
2.986111111111111,-1.17
2.988888888888889,-1.14
2.9916666666666667,-1.125
2.9944444444444445,-1.1
2.9972222222222222,-1.075
3.0,-1.045
3.0027777777777778,-1.04
3.0055555555555555,-1.03
3.0083333333333333,-1.0
3.011111111111111,-0.95
3.013888888888889,-0.925
3.0166666666666666,-0.92
3.0194444444444444,-0.915
3.022222222222222,-0.91
3.025,-0.905
3.0277777777777777,-0.895
3.0305555555555554,-0.885
3.033333333333333,-0.87
3.036111111111111,-0.88
3.0388888888888888,-0.91
3.0416666666666665,-0.91
3.0444444444444443,-0.895
3.047222222222222,-0.875
3.05,-0.89
3.0527777777777776,-0.885
3.0555555555555554,-0.89
3.058333333333333,-0.89
3.061111111111111,-0.87
3.063888888888889,-0.86
3.066666666666667,-0.89
3.0694444444444446,-0.89
3.0722222222222224,-0.915
3.075,-0.89
3.077777777777778,-0.87
3.0805555555555557,-0.87
3.0833333333333335,-0.86
3.0861111111111112,-0.885
3.088888888888889,-0.875
3.091666666666667,-0.885
3.0944444444444446,-0.88
3.0972222222222223,-0.86
3.1,-0.855
3.102777777777778,-0.865
3.1055555555555556,-0.87
3.1083333333333334,-0.875
3.111111111111111,-0.86
3.113888888888889,-0.84
3.1166666666666667,-0.84
3.1194444444444445,-0.82
3.1222222222222222,-0.85
3.125,-0.84
3.1277777777777778,-0.82
3.1305555555555555,-0.81
3.1333333333333333,-0.82
3.136111111111111,-0.8
3.138888888888889,-0.79
3.1416666666666666,-0.765
3.1444444444444444,-0.755
3.147222222222222,-0.73
3.15,-0.73
3.1527777777777777,-0.725
3.1555555555555554,-0.735
3.158333333333333,-0.715
3.161111111111111,-0.7
3.1638888888888888,-0.68
3.1666666666666665,-0.675
3.1694444444444443,-0.68
3.172222222222222,-0.675
3.175,-0.67
3.1777777777777776,-0.65
3.1805555555555554,-0.62
3.183333333333333,-0.6
3.186111111111111,-0.61
3.188888888888889,-0.59
3.191666666666667,-0.585
3.1944444444444446,-0.58
3.1972222222222224,-0.54
3.2,-0.53
3.202777777777778,-0.535
3.2055555555555557,-0.535
3.2083333333333335,-0.525
3.2111111111111112,-0.51
3.213888888888889,-0.49
3.216666666666667,-0.47
3.2194444444444446,-0.465
3.2222222222222223,-0.465
3.225,-0.47
3.227777777777778,-0.45
3.2305555555555556,-0.42
3.2333333333333334,-0.42
3.236111111111111,-0.43
3.238888888888889,-0.44
3.2416666666666667,-0.44
3.2444444444444445,-0.425
3.2472222222222222,-0.405
3.25,-0.41
3.2527777777777778,-0.41
3.2555555555555555,-0.4
3.2583333333333333,-0.39
3.261111111111111,-0.38
3.263888888888889,-0.385
3.2666666666666666,-0.375
3.2694444444444444,-0.385
3.272222222222222,-0.38
3.275,-0.35
3.2777777777777777,-0.355
3.2805555555555554,-0.35
3.283333333333333,-0.375
3.286111111111111,-0.385
3.2888888888888888,-0.405
3.2916666666666665,-0.41
3.2944444444444443,-0.39
3.297222222222222,-0.37
3.3,-0.37
3.3027777777777776,-0.38
3.3055555555555554,-0.39
3.308333333333333,-0.375
3.311111111111111,-0.36
3.313888888888889,-0.36
3.316666666666667,-0.36
3.3194444444444446,-0.38
3.3222222222222224,-0.38
3.325,-0.375
3.327777777777778,-0.38
3.3305555555555557,-0.365
3.3333333333333335,-0.395
3.3361111111111112,-0.385
3.338888888888889,-0.39
3.341666666666667,-0.415
3.3444444444444446,-0.39
3.3472222222222223,-0.37
3.35,-0.36
3.352777777777778,-0.365
3.3555555555555556,-0.39
3.3583333333333334,-0.42
3.361111111111111,-0.435
3.363888888888889,-0.45
3.3666666666666667,-0.485
3.3694444444444445,-0.51
3.3722222222222222,-0.545
3.375,-0.58
3.3777777777777778,-0.595
3.3805555555555555,-0.605
3.3833333333333333,-0.615
3.386111111111111,-0.62
3.388888888888889,-0.64
3.3916666666666666,-0.64
3.3944444444444444,-0.63
3.397222222222222,-0.635
3.4,-0.65
3.4027777777777777,-0.66
3.4055555555555554,-0.68
3.408333333333333,-0.675
3.411111111111111,-0.67
3.4138888888888888,-0.665
3.4166666666666665,-0.655
3.4194444444444443,-0.66
3.422222222222222,-0.68
3.425,-0.695
3.4277777777777776,-0.685
3.4305555555555554,-0.685
3.433333333333333,-0.69
3.436111111111111,-0.675
3.438888888888889,-0.685
3.441666666666667,-0.685
3.4444444444444446,-0.685
3.4472222222222224,-0.67
3.45,-0.665
3.452777777777778,-0.66
3.4555555555555557,-0.68
3.4583333333333335,-0.685
3.4611111111111112,-0.68
3.463888888888889,-0.665
3.466666666666667,-0.66
3.4694444444444446,-0.68
3.4722222222222223,-0.695
3.475,-0.685
3.477777777777778,-0.665
3.4805555555555556,-0.65
3.4833333333333334,-0.65
3.486111111111111,-0.655
3.488888888888889,-0.665
3.4916666666666667,-0.665
3.4944444444444445,-0.655
3.4972222222222222,-0.64
3.5,-0.64
3.5027777777777778,-0.65
3.5055555555555555,-0.665
3.5083333333333333,-0.65
3.511111111111111,-0.65
3.513888888888889,-0.67
3.5166666666666666,-0.685
3.5194444444444444,-0.715
3.522222222222222,-0.705
3.525,-0.675
3.5277777777777777,-0.595
3.5305555555555554,-0.49
3.533333333333333,-0.385
3.536111111111111,-0.285
3.5388888888888888,-0.205
3.5416666666666665,-0.175
3.5444444444444443,-0.14
3.547222222222222,-0.075
3.55,0.02
3.5527777777777776,0.105
3.5555555555555554,0.19
3.558333333333333,0.26
3.561111111111111,0.32
3.563888888888889,0.375
3.566666666666667,0.38
3.5694444444444446,0.36
3.5722222222222224,0.35
3.575,0.325
3.577777777777778,0.315
3.5805555555555557,0.3
3.5833333333333335,0.23
3.5861111111111112,0.145
3.588888888888889,0.055
3.591666666666667,-0.005
3.5944444444444446,-0.055
3.5972222222222223,-0.145
3.6,-0.25
3.602777777777778,-0.41
3.6055555555555556,-0.555
3.6083333333333334,-0.7
3.611111111111111,-0.815
3.613888888888889,-0.925
3.6166666666666667,-1.01
3.6194444444444445,-1.08
3.6222222222222222,-1.125
3.625,-1.155
3.6277777777777778,-1.16
3.6305555555555555,-1.16
3.6333333333333333,-1.155
3.636111111111111,-1.155
3.638888888888889,-1.165
3.6416666666666666,-1.135
3.6444444444444444,-1.1
3.647222222222222,-1.055
3.65,-1.035
3.6527777777777777,-1.015
3.6555555555555554,-1.01
3.658333333333333,-0.985
3.661111111111111,-0.96
3.6638888888888888,-0.935
3.6666666666666665,-0.9
3.6694444444444443,-0.895
3.672222222222222,-0.91
3.675,-0.88
3.6777777777777776,-0.865
3.6805555555555554,-0.825
3.683333333333333,-0.815
3.686111111111111,-0.81
3.688888888888889,-0.815
3.691666666666667,-0.82
3.6944444444444446,-0.825
3.6972222222222224,-0.81
3.7,-0.82
3.702777777777778,-0.825
3.7055555555555557,-0.825
3.7083333333333335,-0.815
3.7111111111111112,-0.82
3.713888888888889,-0.81
3.716666666666667,-0.81
3.7194444444444446,-0.815
3.7222222222222223,-0.83
3.725,-0.82
3.727777777777778,-0.81
3.7305555555555556,-0.805
3.7333333333333334,-0.805
3.736111111111111,-0.815
3.738888888888889,-0.825
3.7416666666666667,-0.835
3.7444444444444445,-0.82
3.7472222222222222,-0.795
3.75,-0.795
3.7527777777777778,-0.805
3.7555555555555555,-0.805
3.7583333333333333,-0.815
3.761111111111111,-0.795
3.763888888888889,-0.8
3.7666666666666666,-0.785
3.7694444444444444,-0.78
3.772222222222222,-0.79
3.775,-0.78
3.7777777777777777,-0.77
3.7805555555555554,-0.75
3.783333333333333,-0.75
3.786111111111111,-0.755
3.7888888888888888,-0.745
3.7916666666666665,-0.72
3.7944444444444443,-0.69
3.797222222222222,-0.69
3.8,-0.68
3.8027777777777776,-0.685
3.8055555555555554,-0.685
3.808333333333333,-0.665
3.811111111111111,-0.64
3.813888888888889,-0.615
3.816666666666667,-0.605
3.8194444444444446,-0.61
3.8222222222222224,-0.61
3.825,-0.595
3.827777777777778,-0.595
3.8305555555555557,-0.575
3.8333333333333335,-0.545
3.8361111111111112,-0.535
3.838888888888889,-0.545
3.841666666666667,-0.515
3.8444444444444446,-0.5
3.8472222222222223,-0.49
3.85,-0.475
3.852777777777778,-0.46
3.8555555555555556,-0.46
3.8583333333333334,-0.45
3.861111111111111,-0.435
3.863888888888889,-0.42
3.8666666666666667,-0.42
3.8694444444444445,-0.425
3.8722222222222222,-0.4
3.875,-0.405
3.8777777777777778,-0.4
3.8805555555555555,-0.375
3.8833333333333333,-0.37
3.886111111111111,-0.38
3.888888888888889,-0.385
3.8916666666666666,-0.36
3.8944444444444444,-0.365
3.897222222222222,-0.335
3.9,-0.34
3.9027777777777777,-0.33
3.9055555555555554,-0.335
3.908333333333333,-0.335
3.911111111111111,-0.31
3.9138888888888888,-0.315
3.9166666666666665,-0.305
3.9194444444444443,-0.32
3.922222222222222,-0.335
3.925,-0.33
3.9277777777777776,-0.31
3.9305555555555554,-0.3
3.933333333333333,-0.315
3.936111111111111,-0.33
3.938888888888889,-0.36
3.941666666666667,-0.375
3.9444444444444446,-0.37
3.9472222222222224,-0.325
3.95,-0.315
3.952777777777778,-0.315
3.9555555555555557,-0.33
3.9583333333333335,-0.335
3.9611111111111112,-0.31
3.963888888888889,-0.31
3.966666666666667,-0.315
3.9694444444444446,-0.305
3.9722222222222223,-0.315
3.975,-0.325
3.977777777777778,-0.32
3.9805555555555556,-0.325
3.9833333333333334,-0.345
3.986111111111111,-0.36
3.988888888888889,-0.385
3.9916666666666667,-0.37
3.9944444444444445,-0.355
3.9972222222222222,-0.355
4.0,-0.365
4.002777777777778,-0.365
4.0055555555555555,-0.375
4.008333333333334,-0.405
4.011111111111111,-0.435
4.013888888888889,-0.45
4.016666666666667,-0.49
4.019444444444445,-0.535
4.022222222222222,-0.585
4.025,-0.585
4.027777777777778,-0.595
4.030555555555556,-0.6
4.033333333333333,-0.61
4.036111111111111,-0.615
4.038888888888889,-0.615
4.041666666666667,-0.615
4.044444444444444,-0.62
4.0472222222222225,-0.605
4.05,-0.605
4.052777777777778,-0.62
4.055555555555555,-0.625
4.058333333333334,-0.625
4.061111111111111,-0.625
4.063888888888889,-0.61
4.066666666666666,-0.595
4.069444444444445,-0.61
4.072222222222222,-0.61
4.075,-0.61
4.0777777777777775,-0.6
4.080555555555556,-0.59
4.083333333333333,-0.595
4.086111111111111,-0.59
4.088888888888889,-0.61
4.091666666666667,-0.62
4.094444444444444,-0.6
4.097222222222222,-0.585
4.1,-0.595
4.102777777777778,-0.605
4.105555555555555,-0.61
4.108333333333333,-0.615
4.111111111111111,-0.605
4.113888888888889,-0.58
4.116666666666666,-0.595
4.1194444444444445,-0.595
4.122222222222222,-0.6
4.125,-0.6
4.127777777777778,-0.595
4.1305555555555555,-0.58
4.133333333333334,-0.575
4.136111111111111,-0.58
4.138888888888889,-0.585
4.141666666666667,-0.575
4.144444444444445,-0.565
4.147222222222222,-0.55
4.15,-0.555
4.152777777777778,-0.565
4.155555555555556,-0.59
4.158333333333333,-0.58
4.161111111111111,-0.565
4.163888888888889,-0.555
4.166666666666667,-0.57
4.169444444444444,-0.575
4.1722222222222225,-0.59
4.175,-0.57
4.177777777777778,-0.505
4.180555555555555,-0.405
4.183333333333334,-0.28
4.186111111111111,-0.15
4.188888888888889,0.0
4.191666666666666,0.115
4.194444444444445,0.145
4.197222222222222,0.14
4.2,0.15
4.2027777777777775,0.175
4.205555555555556,0.205
4.208333333333333,0.25
4.211111111111111,0.32
4.213888888888889,0.41
4.216666666666667,0.46
4.219444444444444,0.48
4.222222222222222,0.475
4.225,0.47
4.227777777777778,0.48
4.230555555555555,0.475
4.233333333333333,0.44
4.236111111111111,0.35
4.238888888888889,0.255
4.241666666666666,0.17
4.2444444444444445,0.09
4.247222222222222,0.035
4.25,-0.055
4.252777777777778,-0.18
4.2555555555555555,-0.34
4.258333333333334,-0.485
4.261111111111111,-0.61
4.263888888888889,-0.705
4.266666666666667,-0.815
4.269444444444445,-0.915
4.272222222222222,-1.015
4.275,-1.06
4.277777777777778,-1.08
4.280555555555556,-1.085
4.283333333333333,-1.085
4.286111111111111,-1.09
4.288888888888889,-1.08
4.291666666666667,-1.075
4.294444444444444,-1.055
4.2972222222222225,-1.035
4.3,-1.025
4.302777777777778,-0.99
4.305555555555555,-0.965
4.308333333333334,-0.925
4.311111111111111,-0.89
4.313888888888889,-0.855
4.316666666666666,-0.835
4.319444444444445,-0.83
4.322222222222222,-0.815
4.325,-0.78
4.3277777777777775,-0.755
4.330555555555556,-0.72
4.333333333333333,-0.7
4.336111111111111,-0.69
4.338888888888889,-0.685
4.341666666666667,-0.675
4.344444444444444,-0.655
4.347222222222222,-0.655
4.35,-0.645
4.352777777777778,-0.66
4.355555555555555,-0.685
4.358333333333333,-0.68
4.361111111111111,-0.66
4.363888888888889,-0.645
4.366666666666666,-0.65
4.3694444444444445,-0.66
4.372222222222222,-0.68
4.375,-0.695
4.377777777777778,-0.685
4.3805555555555555,-0.68
4.383333333333334,-0.675
4.386111111111111,-0.68
4.388888888888889,-0.695
4.391666666666667,-0.715
4.394444444444445,-0.71
4.397222222222222,-0.68
4.4,-0.68
4.402777777777778,-0.685
4.405555555555556,-0.695
4.408333333333333,-0.705
4.411111111111111,-0.675
4.413888888888889,-0.665
4.416666666666667,-0.68
4.419444444444444,-0.695
4.4222222222222225,-0.695
4.425,-0.685
4.427777777777778,-0.675
4.430555555555555,-0.675
4.433333333333334,-0.665
4.436111111111111,-0.66
4.438888888888889,-0.66
4.441666666666666,-0.655
4.444444444444445,-0.64
4.447222222222222,-0.63
4.45,-0.62
4.4527777777777775,-0.62
4.455555555555556,-0.62
4.458333333333333,-0.61
4.461111111111111,-0.605
4.463888888888889,-0.595
4.466666666666667,-0.59
4.469444444444444,-0.585
4.472222222222222,-0.58
4.475,-0.57
4.477777777777778,-0.535
4.480555555555555,-0.515
4.483333333333333,-0.51
4.486111111111111,-0.495
4.488888888888889,-0.505
4.491666666666666,-0.475
4.4944444444444445,-0.475
4.497222222222222,-0.45
4.5,-0.435
4.502777777777778,-0.42
4.5055555555555555,-0.435
4.508333333333334,-0.41
4.511111111111111,-0.385
4.513888888888889,-0.38
4.516666666666667,-0.375
4.519444444444445,-0.38
4.522222222222222,-0.37
4.525,-0.36
4.527777777777778,-0.345
4.530555555555556,-0.33
4.533333333333333,-0.325
4.536111111111111,-0.315
4.538888888888889,-0.33
4.541666666666667,-0.305
4.544444444444444,-0.28
4.5472222222222225,-0.265
4.55,-0.26
4.552777777777778,-0.265
4.555555555555555,-0.26
4.558333333333334,-0.245
4.561111111111111,-0.235
4.563888888888889,-0.215
4.566666666666666,-0.21
4.569444444444445,-0.22
4.572222222222222,-0.23
4.575,-0.215
4.5777777777777775,-0.2
4.580555555555556,-0.19
4.583333333333333,-0.19
4.586111111111111,-0.195
4.588888888888889,-0.21
4.591666666666667,-0.21
4.594444444444444,-0.205
4.597222222222222,-0.195
4.6,-0.205
4.602777777777778,-0.21
4.605555555555555,-0.22
4.608333333333333,-0.23
4.611111111111111,-0.235
4.613888888888889,-0.24
4.616666666666666,-0.23
4.6194444444444445,-0.235
4.622222222222222,-0.245
4.625,-0.245
4.627777777777778,-0.22
4.6305555555555555,-0.2
4.633333333333334,-0.2
4.636111111111111,-0.205
4.638888888888889,-0.22
4.641666666666667,-0.22
4.644444444444445,-0.225
4.647222222222222,-0.205
4.65,-0.21
4.652777777777778,-0.24
4.655555555555556,-0.26
4.658333333333333,-0.265
4.661111111111111,-0.265
4.663888888888889,-0.265
4.666666666666667,-0.26
4.669444444444444,-0.26
4.6722222222222225,-0.255
4.675,-0.26
4.677777777777778,-0.27
4.680555555555555,-0.295
4.683333333333334,-0.32
4.686111111111111,-0.35
4.688888888888889,-0.38
4.691666666666666,-0.41
4.694444444444445,-0.43
4.697222222222222,-0.455
4.7,-0.455
4.7027777777777775,-0.475
4.705555555555556,-0.495
4.708333333333333,-0.505
4.711111111111111,-0.495
4.713888888888889,-0.49
4.716666666666667,-0.49
4.719444444444444,-0.485
4.722222222222222,-0.49
4.725,-0.495
4.727777777777778,-0.505
4.730555555555555,-0.5
4.733333333333333,-0.51
4.736111111111111,-0.525
4.738888888888889,-0.52
4.741666666666666,-0.51
4.7444444444444445,-0.49
4.747222222222222,-0.49
4.75,-0.49
4.752777777777778,-0.5
4.7555555555555555,-0.51
4.758333333333334,-0.515
4.761111111111111,-0.525
4.763888888888889,-0.505
4.766666666666667,-0.505
4.769444444444445,-0.51
4.772222222222222,-0.515
4.775,-0.51
4.777777777777778,-0.5
4.780555555555556,-0.49
4.783333333333333,-0.5
4.786111111111111,-0.485
4.788888888888889,-0.5
4.791666666666667,-0.505
4.794444444444444,-0.515
4.7972222222222225,-0.51
4.8,-0.49
4.802777777777778,-0.48
4.805555555555555,-0.475
4.808333333333334,-0.475
4.811111111111111,-0.47
4.813888888888889,-0.475
4.816666666666666,-0.48
4.819444444444445,-0.475
4.822222222222222,-0.49
4.825,-0.495
4.8277777777777775,-0.47
4.830555555555556,-0.465
4.833333333333333,-0.455
4.836111111111111,-0.465
4.838888888888889,-0.48
4.841666666666667,-0.495
4.844444444444444,-0.48
4.847222222222222,-0.475
4.85,-0.465
4.852777777777778,-0.425
4.855555555555555,-0.36
4.858333333333333,-0.245
4.861111111111111,-0.105
4.863888888888889,0.035
4.866666666666666,0.14
4.8694444444444445,0.235
4.872222222222222,0.28
4.875,0.305
4.877777777777778,0.33
4.8805555555555555,0.38
4.883333333333334,0.44
4.886111111111111,0.515
4.888888888888889,0.565
4.891666666666667,0.655
4.894444444444445,0.715
4.897222222222222,0.73
4.9,0.72
4.902777777777778,0.685
4.905555555555556,0.635
4.908333333333333,0.585
4.911111111111111,0.53
4.913888888888889,0.455
4.916666666666667,0.345
4.919444444444444,0.24
4.9222222222222225,0.16
4.925,0.07
4.927777777777778,-0.03
4.930555555555555,-0.14
4.933333333333334,-0.26
4.936111111111111,-0.39
4.938888888888889,-0.54
4.941666666666666,-0.67
4.944444444444445,-0.78
4.947222222222222,-0.865
4.95,-0.96
4.9527777777777775,-1.065
4.955555555555556,-1.14
4.958333333333333,-1.165
4.961111111111111,-1.17
4.963888888888889,-1.15
4.966666666666667,-1.13
4.969444444444444,-1.13
4.972222222222222,-1.13
4.975,-1.115
4.977777777777778,-1.09
4.980555555555555,-1.05
4.983333333333333,-1.015
4.986111111111111,-1.015
4.988888888888889,-0.985
4.991666666666666,-0.945
4.9944444444444445,-0.91
4.997222222222222,-0.875
5.0,-0.845
5.002777777777778,-0.825
5.0055555555555555,-0.815
5.008333333333334,-0.785
5.011111111111111,-0.755
5.013888888888889,-0.735
5.016666666666667,-0.715
5.019444444444445,-0.695
5.022222222222222,-0.705
5.025,-0.715
5.027777777777778,-0.705
5.030555555555556,-0.68
5.033333333333333,-0.67
5.036111111111111,-0.69
5.038888888888889,-0.695
5.041666666666667,-0.685
5.044444444444444,-0.675
5.0472222222222225,-0.665
5.05,-0.67
5.052777777777778,-0.685
5.055555555555555,-0.685
5.058333333333334,-0.675
5.061111111111111,-0.675
5.063888888888889,-0.675
5.066666666666666,-0.69
5.069444444444445,-0.68
5.072222222222222,-0.685
5.075,-0.69
5.0777777777777775,-0.685
5.080555555555556,-0.685
5.083333333333333,-0.69
5.086111111111111,-0.69
5.088888888888889,-0.7
5.091666666666667,-0.685
5.094444444444444,-0.68
5.097222222222222,-0.67
5.1,-0.665
5.102777777777778,-0.67
5.105555555555555,-0.68
5.108333333333333,-0.695
5.111111111111111,-0.69
5.113888888888889,-0.66
5.116666666666666,-0.655
5.1194444444444445,-0.655
5.122222222222222,-0.64
5.125,-0.64
5.127777777777778,-0.62
5.1305555555555555,-0.61
5.133333333333334,-0.6
5.136111111111111,-0.59
5.138888888888889,-0.59
5.141666666666667,-0.58
5.144444444444445,-0.565
5.147222222222222,-0.535
5.15,-0.525
5.152777777777778,-0.53
5.155555555555556,-0.525
5.158333333333333,-0.49
5.161111111111111,-0.46
5.163888888888889,-0.435
5.166666666666667,-0.43
5.169444444444444,-0.42
5.1722222222222225,-0.43
5.175,-0.425
5.177777777777778,-0.395
5.180555555555555,-0.385
5.183333333333334,-0.37
5.186111111111111,-0.36
5.188888888888889,-0.355
5.191666666666666,-0.335
5.194444444444445,-0.32
5.197222222222222,-0.3
5.2,-0.3
5.2027777777777775,-0.295
5.205555555555556,-0.29
5.208333333333333,-0.27
5.211111111111111,-0.255
5.213888888888889,-0.25
5.216666666666667,-0.24
5.219444444444444,-0.235
5.222222222222222,-0.24
5.225,-0.225
5.227777777777778,-0.205
5.230555555555555,-0.2
5.233333333333333,-0.21
5.236111111111111,-0.21
5.238888888888889,-0.215
5.241666666666666,-0.2
5.2444444444444445,-0.185
5.247222222222222,-0.165
5.25,-0.15
5.252777777777778,-0.16
5.2555555555555555,-0.17
5.258333333333334,-0.175
5.261111111111111,-0.18
5.263888888888889,-0.165
5.266666666666667,-0.17
5.269444444444445,-0.185
5.272222222222222,-0.22
5.275,-0.22
5.277777777777778,-0.21
5.280555555555556,-0.205
5.283333333333333,-0.205
5.286111111111111,-0.2
5.288888888888889,-0.205
5.291666666666667,-0.185
5.294444444444444,-0.18
5.2972222222222225,-0.175
5.3,-0.19
5.302777777777778,-0.2
5.305555555555555,-0.215
5.308333333333334,-0.215
5.311111111111111,-0.225
5.313888888888889,-0.22
5.316666666666666,-0.225
5.319444444444445,-0.24
5.322222222222222,-0.265
5.325,-0.25
5.3277777777777775,-0.24
5.330555555555556,-0.22
5.333333333333333,-0.25
5.336111111111111,-0.29
5.338888888888889,-0.325
5.341666666666667,-0.345
5.344444444444444,-0.345
5.347222222222222,-0.37
5.35,-0.395
5.352777777777778,-0.435
5.355555555555555,-0.46
5.358333333333333,-0.465
5.361111111111111,-0.47
5.363888888888889,-0.47
5.366666666666666,-0.455
5.3694444444444445,-0.465
5.372222222222222,-0.475
5.375,-0.49
5.377777777777778,-0.47
5.3805555555555555,-0.49
5.383333333333334,-0.485
5.386111111111111,-0.48
5.388888888888889,-0.51
5.391666666666667,-0.49
5.394444444444445,-0.475
5.397222222222222,-0.465
5.4,-0.485
5.402777777777778,-0.5
5.405555555555556,-0.495
5.408333333333333,-0.49
5.411111111111111,-0.495
5.413888888888889,-0.495
5.416666666666667,-0.505
5.419444444444444,-0.515
5.4222222222222225,-0.54
5.425,-0.54
5.427777777777778,-0.52
5.430555555555555,-0.515
5.433333333333334,-0.505
5.436111111111111,-0.495
5.438888888888889,-0.5
5.441666666666666,-0.5
5.444444444444445,-0.48
5.447222222222222,-0.49
5.45,-0.495
5.4527777777777775,-0.485
5.455555555555556,-0.495
5.458333333333333,-0.495
5.461111111111111,-0.47
5.463888888888889,-0.455
5.466666666666667,-0.45
5.469444444444444,-0.425
5.472222222222222,-0.395
5.475,-0.36
5.477777777777778,-0.35
5.480555555555555,-0.365
5.483333333333333,-0.39
5.486111111111111,-0.44
5.488888888888889,-0.49
5.491666666666666,-0.515
5.4944444444444445,-0.51
5.497222222222222,-0.445
5.5,-0.335
5.502777777777778,-0.21
5.5055555555555555,-0.09
5.508333333333334,0.03
5.511111111111111,0.115
5.513888888888889,0.18
5.516666666666667,0.19
5.519444444444445,0.245
5.522222222222222,0.29
5.525,0.33
5.527777777777778,0.36
5.530555555555556,0.41
5.533333333333333,0.425
5.536111111111111,0.435
5.538888888888889,0.4
5.541666666666667,0.365
5.544444444444444,0.36
5.5472222222222225,0.34
5.55,0.3
5.552777777777778,0.215
5.555555555555555,0.155
5.558333333333334,0.09
5.561111111111111,0.045
5.563888888888889,-0.015
5.566666666666666,-0.09
5.569444444444445,-0.185
5.572222222222222,-0.32
5.575,-0.445
5.5777777777777775,-0.555
5.580555555555556,-0.645
5.583333333333333,-0.75
5.586111111111111,-0.87
5.588888888888889,-0.96
5.591666666666667,-0.985
5.594444444444444,-0.965
5.597222222222222,-0.945
5.6,-0.945
5.602777777777778,-0.985
5.605555555555555,-1.005
5.608333333333333,-0.995
5.611111111111111,-0.955
5.613888888888889,-0.89
5.616666666666666,-0.84
5.6194444444444445,-0.815
5.622222222222222,-0.835
5.625,-0.85
5.627777777777778,-0.865
5.6305555555555555,-0.865
5.633333333333334,-0.835
5.636111111111111,-0.785
5.638888888888889,-0.715
5.641666666666667,-0.655
5.644444444444445,-0.64
5.647222222222222,-0.645
5.65,-0.67
5.652777777777778,-0.685
5.655555555555556,-0.69
5.658333333333333,-0.665
5.661111111111111,-0.635
5.663888888888889,-0.615
5.666666666666667,-0.615
5.669444444444444,-0.615
5.6722222222222225,-0.615
5.675,-0.62
5.677777777777778,-0.61
5.680555555555555,-0.6
5.683333333333334,-0.595
5.686111111111111,-0.615
5.688888888888889,-0.625
5.691666666666666,-0.635
5.694444444444445,-0.635
5.697222222222222,-0.645
5.7,-0.615
5.7027777777777775,-0.62
5.705555555555556,-0.63
5.708333333333333,-0.635
5.711111111111111,-0.625
5.713888888888889,-0.6
5.716666666666667,-0.595
5.719444444444444,-0.6
5.722222222222222,-0.6
5.725,-0.6
5.727777777777778,-0.595
5.730555555555555,-0.57
5.733333333333333,-0.57
5.736111111111111,-0.575
5.738888888888889,-0.565
5.741666666666666,-0.545
5.7444444444444445,-0.535
5.747222222222222,-0.525
5.75,-0.53
5.752777777777778,-0.545
5.7555555555555555,-0.55
5.758333333333334,-0.54
5.761111111111111,-0.52
5.763888888888889,-0.52
5.766666666666667,-0.505
5.769444444444445,-0.495
5.772222222222222,-0.505
5.775,-0.49
5.777777777777778,-0.475
5.780555555555556,-0.44
5.783333333333333,-0.435
5.786111111111111,-0.435
5.788888888888889,-0.42
5.791666666666667,-0.4
5.794444444444444,-0.385
5.7972222222222225,-0.37
5.8,-0.355
5.802777777777778,-0.35
5.805555555555555,-0.35
5.808333333333334,-0.335
5.811111111111111,-0.32
5.813888888888889,-0.31
5.816666666666666,-0.28
5.819444444444445,-0.285
5.822222222222222,-0.29
5.825,-0.275
5.8277777777777775,-0.265
5.830555555555556,-0.245
5.833333333333333,-0.24
5.836111111111111,-0.245
5.838888888888889,-0.25
5.841666666666667,-0.25
5.844444444444444,-0.22
5.847222222222222,-0.21
5.85,-0.21
5.852777777777778,-0.195
5.855555555555555,-0.2
5.858333333333333,-0.185
5.861111111111111,-0.175
5.863888888888889,-0.155
5.866666666666666,-0.165
5.8694444444444445,-0.165
5.872222222222222,-0.175
5.875,-0.155
5.877777777777778,-0.135
5.8805555555555555,-0.12
5.883333333333334,-0.125
5.886111111111111,-0.145
5.888888888888889,-0.155
5.891666666666667,-0.15
5.894444444444445,-0.15
5.897222222222222,-0.135
5.9,-0.15
5.902777777777778,-0.16
5.905555555555556,-0.18
5.908333333333333,-0.165
5.911111111111111,-0.145
5.913888888888889,-0.15
5.916666666666667,-0.15
5.919444444444444,-0.135
5.9222222222222225,-0.145
5.925,-0.145
5.927777777777778,-0.135
5.930555555555555,-0.145
5.933333333333334,-0.155
5.936111111111111,-0.17
5.938888888888889,-0.2
5.941666666666666,-0.205
5.944444444444445,-0.205
5.947222222222222,-0.195
5.95,-0.18
5.9527777777777775,-0.195
5.955555555555556,-0.185
5.958333333333333,-0.16
5.961111111111111,-0.16
5.963888888888889,-0.17
5.966666666666667,-0.225
5.969444444444444,-0.27
5.972222222222222,-0.29
5.975,-0.31
5.977777777777778,-0.31
5.980555555555555,-0.335
5.983333333333333,-0.355
5.986111111111111,-0.39
5.988888888888889,-0.41
5.991666666666666,-0.42
5.9944444444444445,-0.435
5.997222222222222,-0.42
6.0,-0.415
6.002777777777778,-0.44
6.0055555555555555,-0.445
6.008333333333334,-0.455
6.011111111111111,-0.435
6.013888888888889,-0.43
6.016666666666667,-0.42
6.019444444444445,-0.435
6.022222222222222,-0.45
6.025,-0.455
6.027777777777778,-0.445
6.030555555555556,-0.445
6.033333333333333,-0.425
6.036111111111111,-0.435
6.038888888888889,-0.435
6.041666666666667,-0.445
6.044444444444444,-0.43
6.0472222222222225,-0.42
6.05,-0.425
6.052777777777778,-0.43
6.055555555555555,-0.44
6.058333333333334,-0.435
6.061111111111111,-0.415
6.063888888888889,-0.405
6.066666666666666,-0.41
6.069444444444445,-0.415
6.072222222222222,-0.435
6.075,-0.42
6.0777777777777775,-0.41
6.080555555555556,-0.42
6.083333333333333,-0.41
6.086111111111111,-0.44
6.088888888888889,-0.45
6.091666666666667,-0.44
6.094444444444444,-0.405
6.097222222222222,-0.41
6.1,-0.4
6.102777777777778,-0.41
6.105555555555555,-0.405
6.108333333333333,-0.42
6.111111111111111,-0.42
6.113888888888889,-0.43
6.116666666666666,-0.435
6.1194444444444445,-0.445
6.122222222222222,-0.415
6.125,-0.325
6.127777777777778,-0.185
6.1305555555555555,-0.07
6.133333333333334,0.0
6.136111111111111,0.025
6.138888888888889,0.035
6.141666666666667,0.095
6.144444444444445,0.185
6.147222222222222,0.3
6.15,0.385
6.152777777777778,0.435
6.155555555555556,0.43
6.158333333333333,0.435
6.161111111111111,0.43
6.163888888888889,0.43
6.166666666666667,0.405
6.169444444444444,0.36
6.1722222222222225,0.275
6.175,0.21
6.177777777777778,0.16
6.180555555555555,0.115
6.183333333333334,0.045
6.186111111111111,-0.045
6.188888888888889,-0.17
6.191666666666666,-0.29
6.194444444444445,-0.41
6.197222222222222,-0.535
6.2,-0.67
6.2027777777777775,-0.775
6.205555555555556,-0.855
6.208333333333333,-0.89
6.211111111111111,-0.915
6.213888888888889,-0.92
6.216666666666667,-0.92
6.219444444444444,-0.895
6.222222222222222,-0.905
6.225,-0.92
6.227777777777778,-0.9
6.230555555555555,-0.85
6.233333333333333,-0.8
6.236111111111111,-0.78
6.238888888888889,-0.765
6.241666666666666,-0.755
6.2444444444444445,-0.72
6.247222222222222,-0.675
6.25,-0.65
6.252777777777778,-0.645
6.2555555555555555,-0.63
6.258333333333334,-0.605
6.261111111111111,-0.59
6.263888888888889,-0.585
6.266666666666667,-0.575
6.269444444444445,-0.575
6.272222222222222,-0.58
6.275,-0.575
6.277777777777778,-0.56
6.280555555555556,-0.555
6.283333333333333,-0.57
6.286111111111111,-0.585
6.288888888888889,-0.6
6.291666666666667,-0.58
6.294444444444444,-0.575
6.2972222222222225,-0.57
6.3,-0.57
6.302777777777778,-0.575
6.305555555555555,-0.595
6.308333333333334,-0.575
6.311111111111111,-0.56
6.313888888888889,-0.56
6.316666666666666,-0.565
6.319444444444445,-0.575
6.322222222222222,-0.585
6.325,-0.58
6.3277777777777775,-0.565
6.330555555555556,-0.56
6.333333333333333,-0.555
6.336111111111111,-0.57
6.338888888888889,-0.58
6.341666666666667,-0.565
6.344444444444444,-0.555
6.347222222222222,-0.535
6.35,-0.525
6.352777777777778,-0.55
6.355555555555555,-0.535
6.358333333333333,-0.52
6.361111111111111,-0.51
6.363888888888889,-0.5
6.366666666666666,-0.485
6.3694444444444445,-0.495
6.372222222222222,-0.49
6.375,-0.48
6.377777777777778,-0.465
6.3805555555555555,-0.445
6.383333333333334,-0.435
6.386111111111111,-0.415
6.388888888888889,-0.415
6.391666666666667,-0.4
6.394444444444445,-0.385
6.397222222222222,-0.395
6.4,-0.375
6.402777777777778,-0.35
6.405555555555556,-0.34
6.408333333333333,-0.34
6.411111111111111,-0.305
6.413888888888889,-0.295
6.416666666666667,-0.275
6.419444444444444,-0.28
6.4222222222222225,-0.275
6.425,-0.255
6.427777777777778,-0.245
6.430555555555555,-0.23
6.433333333333334,-0.225
6.436111111111111,-0.23
6.438888888888889,-0.225
6.441666666666666,-0.205
6.444444444444445,-0.2
6.447222222222222,-0.175
6.45,-0.18
6.4527777777777775,-0.175
6.455555555555556,-0.155
6.458333333333333,-0.165
6.461111111111111,-0.14
6.463888888888889,-0.135
6.466666666666667,-0.11
6.469444444444444,-0.125
6.472222222222222,-0.115
6.475,-0.1
6.477777777777778,-0.08
6.480555555555555,-0.085
6.483333333333333,-0.08
6.486111111111111,-0.08
6.488888888888889,-0.1
6.491666666666666,-0.105
6.4944444444444445,-0.11
6.497222222222222,-0.115
6.5,-0.12
6.502777777777778,-0.11
6.5055555555555555,-0.12
6.508333333333334,-0.095
6.511111111111111,-0.085
6.513888888888889,-0.075
6.516666666666667,-0.07
6.519444444444445,-0.085
6.522222222222222,-0.11
6.525,-0.105
6.527777777777778,-0.09
6.530555555555556,-0.095
6.533333333333333,-0.1
6.536111111111111,-0.115
6.538888888888889,-0.135
6.541666666666667,-0.14
6.544444444444444,-0.145
6.5472222222222225,-0.14
6.55,-0.135
6.552777777777778,-0.14
6.555555555555555,-0.155
6.558333333333334,-0.165
6.561111111111111,-0.19
6.563888888888889,-0.21
6.566666666666666,-0.245
6.569444444444445,-0.265
6.572222222222222,-0.3
6.575,-0.32
6.5777777777777775,-0.35
6.580555555555556,-0.355
6.583333333333333,-0.375
6.586111111111111,-0.405
6.588888888888889,-0.405
6.591666666666667,-0.4
6.594444444444444,-0.395
6.597222222222222,-0.4
6.6,-0.4
6.602777777777778,-0.41
6.605555555555555,-0.42
6.608333333333333,-0.42
6.611111111111111,-0.405
6.613888888888889,-0.41
6.616666666666666,-0.405
6.6194444444444445,-0.41
6.622222222222222,-0.43
6.625,-0.425
6.627777777777778,-0.405
6.6305555555555555,-0.39
6.633333333333334,-0.4
6.636111111111111,-0.405
6.638888888888889,-0.425
6.641666666666667,-0.415
6.644444444444445,-0.39
6.647222222222222,-0.4
6.65,-0.39
6.652777777777778,-0.395
6.655555555555556,-0.4
6.658333333333333,-0.405
6.661111111111111,-0.405
6.663888888888889,-0.4
6.666666666666667,-0.395
6.669444444444444,-0.41
6.6722222222222225,-0.425
6.675,-0.405
6.677777777777778,-0.39
6.680555555555555,-0.38
6.683333333333334,-0.375
6.686111111111111,-0.4
6.688888888888889,-0.405
6.691666666666666,-0.395
6.694444444444445,-0.37
6.697222222222222,-0.365
6.7,-0.36
6.7027777777777775,-0.38
6.705555555555556,-0.395
6.708333333333333,-0.405
6.711111111111111,-0.405
6.713888888888889,-0.415
6.716666666666667,-0.42
6.719444444444444,-0.425
6.722222222222222,-0.375
6.725,-0.255
6.727777777777778,-0.135
6.730555555555555,-0.015
6.733333333333333,0.06
6.736111111111111,0.08
6.738888888888889,0.09
6.741666666666666,0.16
6.7444444444444445,0.27
6.747222222222222,0.395
6.75,0.49
6.752777777777778,0.555
6.7555555555555555,0.59
6.758333333333334,0.615
6.761111111111111,0.615
6.763888888888889,0.605
6.766666666666667,0.58
6.769444444444445,0.525
6.772222222222222,0.43
6.775,0.355
6.777777777777778,0.295
6.780555555555556,0.24
6.783333333333333,0.165
6.786111111111111,0.06
6.788888888888889,-0.095
6.791666666666667,-0.255
6.794444444444444,-0.4
6.7972222222222225,-0.525
6.8,-0.65
6.802777777777778,-0.765
6.805555555555555,-0.835
6.808333333333334,-0.87
6.811111111111111,-0.88
6.813888888888889,-0.87
6.816666666666666,-0.88
6.819444444444445,-0.88
6.822222222222222,-0.89
6.825,-0.88
6.8277777777777775,-0.87
6.830555555555556,-0.835
6.833333333333333,-0.795
6.836111111111111,-0.785
6.838888888888889,-0.76
6.841666666666667,-0.73
6.844444444444444,-0.705
6.847222222222222,-0.67
6.85,-0.65
6.852777777777778,-0.65
6.855555555555555,-0.635
6.858333333333333,-0.605
6.861111111111111,-0.575
6.863888888888889,-0.555
6.866666666666666,-0.55
6.8694444444444445,-0.555
6.872222222222222,-0.56
6.875,-0.54
6.877777777777778,-0.54
6.8805555555555555,-0.545
6.883333333333334,-0.545
6.886111111111111,-0.54
6.888888888888889,-0.55
6.891666666666667,-0.56
6.894444444444445,-0.545
6.897222222222222,-0.535
6.9,-0.53
6.902777777777778,-0.54
6.905555555555556,-0.56
6.908333333333333,-0.55
6.911111111111111,-0.545
6.913888888888889,-0.535
6.916666666666667,-0.53
6.919444444444444,-0.545
6.9222222222222225,-0.555
6.925,-0.555
6.927777777777778,-0.54
6.930555555555555,-0.525
6.933333333333334,-0.515
6.936111111111111,-0.52
6.938888888888889,-0.535
6.941666666666666,-0.525
6.944444444444445,-0.5
6.947222222222222,-0.495
6.95,-0.49
6.9527777777777775,-0.495
6.955555555555556,-0.495
6.958333333333333,-0.495
6.961111111111111,-0.465
6.963888888888889,-0.465
6.966666666666667,-0.45
6.969444444444444,-0.46
6.972222222222222,-0.46
6.975,-0.435
6.977777777777778,-0.415
6.980555555555555,-0.42
6.983333333333333,-0.405
6.986111111111111,-0.41
6.988888888888889,-0.41
6.991666666666666,-0.38
6.9944444444444445,-0.365
6.997222222222222,-0.33
7.0,-0.325
7.002777777777778,-0.315
7.0055555555555555,-0.315
7.008333333333334,-0.315
7.011111111111111,-0.285
7.013888888888889,-0.26
7.016666666666667,-0.24
7.019444444444445,-0.23
7.022222222222222,-0.235
7.025,-0.235
7.027777777777778,-0.22
7.030555555555556,-0.205
7.033333333333333,-0.185
7.036111111111111,-0.2
7.038888888888889,-0.2
7.041666666666667,-0.18
7.044444444444444,-0.16
7.0472222222222225,-0.13
7.05,-0.115
7.052777777777778,-0.115
7.055555555555555,-0.135
7.058333333333334,-0.13
7.061111111111111,-0.125
7.063888888888889,-0.105
7.066666666666666,-0.105
7.069444444444445,-0.095
7.072222222222222,-0.08
7.075,-0.055
7.0777777777777775,-0.01
7.080555555555556,0.01
7.083333333333333,0.01
7.086111111111111,-0.02
7.088888888888889,-0.035
7.091666666666667,0.005
7.094444444444444,0.05
7.097222222222222,0.065
7.1,0.015
7.102777777777778,-0.065
7.105555555555555,-0.15
7.108333333333333,-0.18
7.111111111111111,-0.165
7.113888888888889,-0.145
7.116666666666666,-0.115
7.1194444444444445,-0.105
7.122222222222222,-0.095
7.125,-0.075
7.127777777777778,-0.065
7.1305555555555555,-0.065
7.133333333333334,-0.08
7.136111111111111,-0.08
7.138888888888889,-0.07
7.141666666666667,-0.07
7.144444444444445,-0.06
7.147222222222222,-0.06
7.15,-0.06
7.152777777777778,-0.075
7.155555555555556,-0.105
7.158333333333333,-0.115
7.161111111111111,-0.115
7.163888888888889,-0.115
7.166666666666667,-0.11
7.169444444444444,-0.11
7.1722222222222225,-0.135
7.175,-0.155
7.177777777777778,-0.175
7.180555555555555,-0.2
7.183333333333334,-0.22
7.186111111111111,-0.245
7.188888888888889,-0.26
7.191666666666666,-0.255
7.194444444444445,-0.26
7.197222222222222,-0.28
7.2,-0.32
7.2027777777777775,-0.35
7.205555555555556,-0.365
7.208333333333333,-0.34
7.211111111111111,-0.265
7.213888888888889,-0.205
7.216666666666667,-0.185
7.219444444444444,-0.225
7.222222222222222,-0.3
7.225,-0.36
7.227777777777778,-0.405
7.230555555555555,-0.435
7.233333333333333,-0.455
7.236111111111111,-0.475
7.238888888888889,-0.475
7.241666666666666,-0.455
7.2444444444444445,-0.445
7.247222222222222,-0.425
7.25,-0.4
7.252777777777778,-0.395
7.2555555555555555,-0.4
7.258333333333334,-0.425
7.261111111111111,-0.43
7.263888888888889,-0.415
7.266666666666667,-0.39
7.269444444444445,-0.385
7.272222222222222,-0.41
7.275,-0.425
7.277777777777778,-0.425
7.280555555555556,-0.4
7.283333333333333,-0.375
7.286111111111111,-0.355
7.288888888888889,-0.355
7.291666666666667,-0.345
7.294444444444444,-0.33
7.2972222222222225,-0.295
7.3,-0.275
7.302777777777778,-0.26
7.305555555555555,-0.285
7.308333333333334,-0.285
7.311111111111111,-0.3
7.313888888888889,-0.33
7.316666666666666,-0.35
7.319444444444445,-0.35
7.322222222222222,-0.325
7.325,-0.315
7.3277777777777775,-0.33
7.330555555555556,-0.355
7.333333333333333,-0.355
7.336111111111111,-0.325
7.338888888888889,-0.235
7.341666666666667,-0.145
7.344444444444444,-0.07
7.347222222222222,-0.04
7.35,0.005
7.352777777777778,0.065
7.355555555555555,0.14
7.358333333333333,0.23
7.361111111111111,0.33
7.363888888888889,0.405
7.366666666666666,0.435
7.3694444444444445,0.46
7.372222222222222,0.52
7.375,0.625
7.377777777777778,0.695
7.3805555555555555,0.7
7.383333333333334,0.65
7.386111111111111,0.595
7.388888888888889,0.575
7.391666666666667,0.595
7.394444444444445,0.6
7.397222222222222,0.55
7.4,0.475
7.402777777777778,0.405
7.405555555555556,0.33
7.408333333333333,0.265
7.411111111111111,0.195
7.413888888888889,0.1
7.416666666666667,-0.045
7.419444444444444,-0.215
7.4222222222222225,-0.405
7.425,-0.56
7.427777777777778,-0.69
7.430555555555555,-0.75
7.433333333333334,-0.8
7.436111111111111,-0.85
7.438888888888889,-0.92
7.441666666666666,-0.945
7.444444444444445,-0.955
7.447222222222222,-0.945
7.45,-0.915
7.4527777777777775,-0.93
7.455555555555556,-0.92
7.458333333333333,-0.865
7.461111111111111,-0.81
7.463888888888889,-0.77
7.466666666666667,-0.74
7.469444444444444,-0.715
7.472222222222222,-0.68
7.475,-0.665
7.477777777777778,-0.62
7.480555555555555,-0.6
7.483333333333333,-0.59
7.486111111111111,-0.585
7.488888888888889,-0.56
7.491666666666666,-0.505
7.4944444444444445,-0.48
7.497222222222222,-0.475
7.5,-0.48
7.502777777777778,-0.49
7.5055555555555555,-0.455
7.508333333333334,-0.425
7.511111111111111,-0.415
7.513888888888889,-0.39
7.516666666666667,-0.355
7.519444444444445,-0.36
7.522222222222222,-0.425
7.525,-0.485
7.527777777777778,-0.525
7.530555555555556,-0.505
7.533333333333333,-0.53
7.536111111111111,-0.56
7.538888888888889,-0.62
7.541666666666667,-0.635
7.544444444444444,-0.63
7.5472222222222225,-0.615
7.55,-0.615
7.552777777777778,-0.605
7.555555555555555,-0.605
7.558333333333334,-0.605
7.561111111111111,-0.61
7.563888888888889,-0.595
7.566666666666666,-0.59
7.569444444444445,-0.595
7.572222222222222,-0.59
7.575,-0.575
7.5777777777777775,-0.565
7.580555555555556,-0.565
7.583333333333333,-0.525
7.586111111111111,-0.515
7.588888888888889,-0.505
7.591666666666667,-0.5
7.594444444444444,-0.495
7.597222222222222,-0.475
7.6,-0.45
7.602777777777778,-0.44
7.605555555555555,-0.42
7.608333333333333,-0.4
7.611111111111111,-0.335
7.613888888888889,-0.28
7.616666666666666,-0.25
7.6194444444444445,-0.27
7.622222222222222,-0.33
7.625,-0.41
7.627777777777778,-0.445
7.6305555555555555,-0.42
7.633333333333334,-0.355
7.636111111111111,-0.285
7.638888888888889,-0.235
7.641666666666667,-0.2
7.644444444444445,-0.205
7.647222222222222,-0.185
7.65,-0.15
7.652777777777778,-0.145
7.655555555555556,-0.175
7.658333333333333,-0.205
7.661111111111111,-0.185
7.663888888888889,-0.155
7.666666666666667,-0.115
7.669444444444444,-0.115
7.6722222222222225,-0.125
7.675,-0.12
7.677777777777778,-0.15
7.680555555555555,-0.165
7.683333333333334,-0.18
7.686111111111111,-0.195
7.688888888888889,-0.225
7.691666666666666,-0.2
7.694444444444445,-0.155
7.697222222222222,-0.055
7.7,0.05
7.7027777777777775,0.075
7.705555555555556,0.07
7.708333333333333,0.015
7.711111111111111,-0.05
7.713888888888889,-0.08
7.716666666666667,-0.08
7.719444444444444,-0.06
7.722222222222222,-0.03
7.725,0.015
7.727777777777778,0.055
7.730555555555555,0.08
7.733333333333333,0.095
7.736111111111111,0.11
7.738888888888889,0.145
7.741666666666666,0.105
7.7444444444444445,-0.025
7.747222222222222,-0.135
7.75,-0.175
7.752777777777778,-0.145
7.7555555555555555,-0.11
7.758333333333334,-0.12
7.761111111111111,-0.17
7.763888888888889,-0.195
7.766666666666667,-0.15
7.769444444444445,-0.105
7.772222222222222,-0.06
7.775,-0.03
7.777777777777778,-0.055
7.780555555555556,-0.065
7.783333333333333,-0.08
7.786111111111111,-0.105
7.788888888888889,-0.155
7.791666666666667,-0.215
7.794444444444444,-0.28
7.7972222222222225,-0.295
7.8,-0.29
7.802777777777778,-0.285
7.805555555555555,-0.305
7.808333333333334,-0.31
7.811111111111111,-0.32
7.813888888888889,-0.31
7.816666666666666,-0.3
7.819444444444445,-0.28
7.822222222222222,-0.31
7.825,-0.32
7.8277777777777775,-0.3
7.830555555555556,-0.255
7.833333333333333,-0.235
7.836111111111111,-0.285
7.838888888888889,-0.365
7.841666666666667,-0.4
7.844444444444444,-0.405
7.847222222222222,-0.355
7.85,-0.37
7.852777777777778,-0.405
7.855555555555555,-0.44
7.858333333333333,-0.425
7.861111111111111,-0.4
7.863888888888889,-0.37
7.866666666666666,-0.35
7.8694444444444445,-0.35
7.872222222222222,-0.355
7.875,-0.35
7.877777777777778,-0.34
7.8805555555555555,-0.35
7.883333333333334,-0.35
7.886111111111111,-0.37
7.888888888888889,-0.35
7.891666666666667,-0.34
7.894444444444445,-0.335
7.897222222222222,-0.335
7.9,-0.33
7.902777777777778,-0.32
7.905555555555556,-0.325
7.908333333333333,-0.32
7.911111111111111,-0.315
7.913888888888889,-0.285
7.916666666666667,-0.28
7.919444444444444,-0.29
7.9222222222222225,-0.28
7.925,-0.265
7.927777777777778,-0.24
7.930555555555555,-0.23
7.933333333333334,-0.27
7.936111111111111,-0.3
7.938888888888889,-0.345
7.941666666666666,-0.365
7.944444444444445,-0.36
7.947222222222222,-0.345
7.95,-0.34
7.9527777777777775,-0.335
7.955555555555556,-0.31
7.958333333333333,-0.235
7.961111111111111,-0.11
7.963888888888889,-0.005
7.966666666666667,0.085
7.969444444444444,0.165
7.972222222222222,0.205
7.975,0.2
7.977777777777778,0.2
7.980555555555555,0.25
7.983333333333333,0.345
7.986111111111111,0.445
7.988888888888889,0.54
7.991666666666666,0.635
7.9944444444444445,0.725
7.997222222222222,0.795
8.0,0.805
8.002777777777778,0.79
8.005555555555556,0.755
8.008333333333333,0.745
8.011111111111111,0.725
8.01388888888889,0.68
8.016666666666667,0.57
8.019444444444444,0.485
8.022222222222222,0.425
8.025,0.36
8.027777777777779,0.29
8.030555555555555,0.2
8.033333333333333,0.065
8.036111111111111,-0.075
8.03888888888889,-0.215
8.041666666666666,-0.325
8.044444444444444,-0.43
8.047222222222222,-0.53
8.05,-0.615
8.052777777777777,-0.695
8.055555555555555,-0.745
8.058333333333334,-0.775
8.061111111111112,-0.785
8.063888888888888,-0.8
8.066666666666666,-0.8
8.069444444444445,-0.795
8.072222222222223,-0.795
8.075,-0.8
8.077777777777778,-0.81
8.080555555555556,-0.785
8.083333333333334,-0.765
8.08611111111111,-0.725
8.088888888888889,-0.695
8.091666666666667,-0.655
8.094444444444445,-0.625
8.097222222222221,-0.605
8.1,-0.59
8.102777777777778,-0.59
8.105555555555556,-0.59
8.108333333333333,-0.56
8.11111111111111,-0.535
8.113888888888889,-0.51
8.116666666666667,-0.475
8.119444444444444,-0.475
8.122222222222222,-0.46
8.125,-0.45
8.127777777777778,-0.435
8.130555555555556,-0.42
8.133333333333333,-0.42
8.136111111111111,-0.44
8.13888888888889,-0.435
8.141666666666667,-0.425
8.144444444444444,-0.42
8.147222222222222,-0.435
8.15,-0.425
8.152777777777779,-0.435
8.155555555555555,-0.44
8.158333333333333,-0.45
8.161111111111111,-0.435
8.16388888888889,-0.43
8.166666666666666,-0.44
8.169444444444444,-0.445
8.172222222222222,-0.46
8.175,-0.45
8.177777777777777,-0.44
8.180555555555555,-0.43
8.183333333333334,-0.425
8.186111111111112,-0.44
8.188888888888888,-0.45
8.191666666666666,-0.44
8.194444444444445,-0.425
8.197222222222223,-0.425
8.2,-0.415
8.202777777777778,-0.425
8.205555555555556,-0.44
8.208333333333334,-0.425
8.21111111111111,-0.42
8.213888888888889,-0.41
8.216666666666667,-0.405
8.219444444444445,-0.415
8.222222222222221,-0.41
8.225,-0.405
8.227777777777778,-0.385
8.230555555555556,-0.36
8.233333333333333,-0.355
8.23611111111111,-0.365
8.238888888888889,-0.365
8.241666666666667,-0.34
8.244444444444444,-0.32
8.247222222222222,-0.305
8.25,-0.305
8.252777777777778,-0.295
8.255555555555556,-0.29
8.258333333333333,-0.265
8.261111111111111,-0.235
8.26388888888889,-0.225
8.266666666666667,-0.22
8.269444444444444,-0.225
8.272222222222222,-0.24
8.275,-0.215
8.277777777777779,-0.19
8.280555555555555,-0.16
8.283333333333333,-0.14
8.286111111111111,-0.135
8.28888888888889,-0.135
8.291666666666666,-0.12
8.294444444444444,-0.095
8.297222222222222,-0.08
8.3,-0.075
8.302777777777777,-0.075
8.305555555555555,-0.075
8.308333333333334,-0.055
8.311111111111112,-0.03
8.313888888888888,-0.03
8.316666666666666,-0.03
8.319444444444445,-0.015
8.322222222222223,-0.015
8.325,-0.005
8.327777777777778,0.015
8.330555555555556,0.035
8.333333333333334,0.035
8.33611111111111,0.035
8.338888888888889,0.03
8.341666666666667,0.055
8.344444444444445,0.075
8.347222222222221,0.095
8.35,0.1
8.352777777777778,0.105
8.355555555555556,0.095
8.358333333333333,0.105
8.36111111111111,0.115
8.363888888888889,0.11
8.366666666666667,0.105
8.369444444444444,0.075
8.372222222222222,0.065
8.375,0.065
8.377777777777778,0.08
8.380555555555556,0.095
8.383333333333333,0.095
8.386111111111111,0.11
8.38888888888889,0.095
8.391666666666667,0.1
8.394444444444444,0.11
8.397222222222222,0.095
8.4,0.09
8.402777777777779,0.08
8.405555555555555,0.06
8.408333333333333,0.07
8.411111111111111,0.065
8.41388888888889,0.06
8.416666666666666,0.065
8.419444444444444,0.06
8.422222222222222,0.055
8.425,0.06
8.427777777777777,0.08
8.430555555555555,0.075
8.433333333333334,0.055
8.436111111111112,0.02
8.438888888888888,-0.015
8.441666666666666,-0.05
8.444444444444445,-0.065
8.447222222222223,-0.09
8.45,-0.11
8.452777777777778,-0.135
8.455555555555556,-0.175
8.458333333333334,-0.195
8.46111111111111,-0.21
8.463888888888889,-0.21
8.466666666666667,-0.21
8.469444444444445,-0.22
8.472222222222221,-0.245
8.475,-0.25
8.477777777777778,-0.235
8.480555555555556,-0.22
8.483333333333333,-0.23
8.48611111111111,-0.23
8.488888888888889,-0.24
8.491666666666667,-0.245
8.494444444444444,-0.235
8.497222222222222,-0.23
8.5,-0.235
8.502777777777778,-0.24
8.505555555555556,-0.255
8.508333333333333,-0.25
8.511111111111111,-0.23
8.51388888888889,-0.235
8.516666666666667,-0.24
8.519444444444444,-0.265
8.522222222222222,-0.255
8.525,-0.26
8.527777777777779,-0.25
8.530555555555555,-0.23
8.533333333333333,-0.235
8.536111111111111,-0.235
8.53888888888889,-0.24
8.541666666666666,-0.23
8.544444444444444,-0.225
8.547222222222222,-0.235
8.55,-0.24
8.552777777777777,-0.24
8.555555555555555,-0.24
8.558333333333334,-0.22
8.561111111111112,-0.215
8.563888888888888,-0.205
8.566666666666666,-0.21
8.569444444444445,-0.215
8.572222222222223,-0.22
8.575,-0.225
8.577777777777778,-0.21
8.580555555555556,-0.21
8.583333333333334,-0.21
8.58611111111111,-0.215
8.588888888888889,-0.235
8.591666666666667,-0.255
8.594444444444445,-0.26
8.597222222222221,-0.265
8.6,-0.265
8.602777777777778,-0.27
8.605555555555556,-0.25
8.608333333333333,-0.155
8.61111111111111,-0.04
8.613888888888889,0.05
8.616666666666667,0.15
8.619444444444444,0.215
8.622222222222222,0.275
8.625,0.32
8.627777777777778,0.39
8.630555555555556,0.49
8.633333333333333,0.595
8.636111111111111,0.69
8.63888888888889,0.78
8.641666666666667,0.86
8.644444444444444,0.935
8.647222222222222,0.97
8.65,0.98
8.652777777777779,0.95
8.655555555555555,0.94
8.658333333333333,0.915
8.661111111111111,0.88
8.66388888888889,0.8
8.666666666666666,0.685
8.669444444444444,0.585
8.672222222222222,0.495
8.675,0.41
8.677777777777777,0.315
8.680555555555555,0.2
8.683333333333334,0.07
8.686111111111112,-0.1
8.688888888888888,-0.265
8.691666666666666,-0.375
8.694444444444445,-0.48
8.697222222222223,-0.59
8.7,-0.68
8.702777777777778,-0.75
8.705555555555556,-0.79
8.708333333333334,-0.825
8.71111111111111,-0.83
8.713888888888889,-0.835
8.716666666666667,-0.835
8.719444444444445,-0.83
8.722222222222221,-0.845
8.725,-0.845
8.727777777777778,-0.82
8.730555555555556,-0.775
8.733333333333333,-0.755
8.73611111111111,-0.73
8.738888888888889,-0.7
8.741666666666667,-0.67
8.744444444444444,-0.65
8.747222222222222,-0.625
8.75,-0.61
8.752777777777778,-0.605
8.755555555555556,-0.59
8.758333333333333,-0.555
8.761111111111111,-0.515
8.76388888888889,-0.49
8.766666666666667,-0.49
8.769444444444444,-0.48
8.772222222222222,-0.49
8.775,-0.465
8.777777777777779,-0.455
8.780555555555555,-0.455
8.783333333333333,-0.445
8.786111111111111,-0.45
8.78888888888889,-0.46
8.791666666666666,-0.465
8.794444444444444,-0.46
8.797222222222222,-0.465
8.8,-0.455
8.802777777777777,-0.475
8.805555555555555,-0.475
8.808333333333334,-0.475
8.811111111111112,-0.46
8.813888888888888,-0.465
8.816666666666666,-0.46
8.819444444444445,-0.475
8.822222222222223,-0.485
8.825,-0.495
8.827777777777778,-0.485
8.830555555555556,-0.48
8.833333333333334,-0.48
8.83611111111111,-0.5
8.838888888888889,-0.51
8.841666666666667,-0.505
8.844444444444445,-0.49
8.847222222222221,-0.49
8.85,-0.495
8.852777777777778,-0.495
8.855555555555556,-0.5
8.858333333333333,-0.5
8.86111111111111,-0.485
8.863888888888889,-0.47
8.866666666666667,-0.475
8.869444444444444,-0.47
8.872222222222222,-0.475
8.875,-0.47
8.877777777777778,-0.45
8.880555555555556,-0.435
8.883333333333333,-0.435
8.886111111111111,-0.435
8.88888888888889,-0.43
8.891666666666667,-0.415
8.894444444444444,-0.41
8.897222222222222,-0.39
8.9,-0.39
8.902777777777779,-0.385
8.905555555555555,-0.385
8.908333333333333,-0.375
8.911111111111111,-0.365
8.91388888888889,-0.335
8.916666666666666,-0.315
8.919444444444444,-0.31
8.922222222222222,-0.315
8.925,-0.305
8.927777777777777,-0.285
8.930555555555555,-0.255
8.933333333333334,-0.245
8.936111111111112,-0.235
8.938888888888888,-0.24
8.941666666666666,-0.225
8.944444444444445,-0.215
8.947222222222223,-0.175
8.95,-0.16
8.952777777777778,-0.145
8.955555555555556,-0.155
8.958333333333334,-0.15
8.96111111111111,-0.135
8.963888888888889,-0.12
8.966666666666667,-0.12
8.969444444444445,-0.11
8.972222222222221,-0.11
8.975,-0.1
8.977777777777778,-0.08
8.980555555555556,-0.06
8.983333333333333,-0.05
8.98611111111111,-0.045
8.988888888888889,-0.055
8.991666666666667,-0.04
8.994444444444444,-0.04
8.997222222222222,-0.01
9.0,0.015
9.002777777777778,0.02
9.005555555555556,0.015
9.008333333333333,0.0
9.011111111111111,0.01
9.01388888888889,0.025
9.016666666666667,0.025
9.019444444444444,0.02
9.022222222222222,0.015
9.025,0.015
9.027777777777779,0.025
9.030555555555555,0.015
9.033333333333333,-0.005
9.036111111111111,-0.025
9.03888888888889,-0.035
9.041666666666666,-0.025
9.044444444444444,0.0
9.047222222222222,0.025
9.05,0.03
9.052777777777777,0.015
9.055555555555555,-0.005
9.058333333333334,-0.015
9.061111111111112,-0.005
9.063888888888888,-0.005
9.066666666666666,-0.005
9.069444444444445,-0.03
9.072222222222223,-0.035
9.075,-0.035
9.077777777777778,-0.035
9.080555555555556,-0.03
9.083333333333334,-0.035
9.08611111111111,-0.06
9.088888888888889,-0.065
9.091666666666667,-0.05
9.094444444444445,-0.04
9.097222222222221,-0.045
9.1,-0.06
9.102777777777778,-0.095
9.105555555555556,-0.135
9.108333333333333,-0.16
9.11111111111111,-0.18
9.113888888888889,-0.2
9.116666666666667,-0.225
9.119444444444444,-0.265
9.122222222222222,-0.29
9.125,-0.32
9.127777777777778,-0.325
9.130555555555556,-0.335
9.133333333333333,-0.345
9.136111111111111,-0.36
9.13888888888889,-0.385
9.141666666666667,-0.37
9.144444444444444,-0.36
9.147222222222222,-0.335
9.15,-0.345
9.152777777777779,-0.345
9.155555555555555,-0.36
9.158333333333333,-0.365
9.161111111111111,-0.35
9.16388888888889,-0.335
9.166666666666666,-0.34
9.169444444444444,-0.355
9.172222222222222,-0.365
9.175,-0.36
9.177777777777777,-0.345
9.180555555555555,-0.335
9.183333333333334,-0.345
9.186111111111112,-0.36
9.188888888888888,-0.365
9.191666666666666,-0.36
9.194444444444445,-0.35
9.197222222222223,-0.335
9.2,-0.345
9.202777777777778,-0.35
9.205555555555556,-0.375
9.208333333333334,-0.35
9.21111111111111,-0.34
9.213888888888889,-0.32
9.216666666666667,-0.325
9.219444444444445,-0.335
9.222222222222221,-0.345
9.225,-0.345
9.227777777777778,-0.34
9.230555555555556,-0.33
9.233333333333333,-0.305
9.23611111111111,-0.315
9.238888888888889,-0.33
9.241666666666667,-0.33
9.244444444444444,-0.31
9.247222222222222,-0.315
9.25,-0.31
9.252777777777778,-0.325
9.255555555555556,-0.355
9.258333333333333,-0.35
9.261111111111111,-0.305
9.26388888888889,-0.22
9.266666666666667,-0.11
9.269444444444444,0.02
9.272222222222222,0.12
9.275,0.2
9.277777777777779,0.285
9.280555555555555,0.345
9.283333333333333,0.395
9.286111111111111,0.43
9.28888888888889,0.495
9.291666666666666,0.565
9.294444444444444,0.655
9.297222222222222,0.74
9.3,0.805
9.302777777777777,0.82
9.305555555555555,0.795
9.308333333333334,0.755
9.311111111111112,0.73
9.313888888888888,0.7
9.316666666666666,0.65
9.319444444444445,0.56
9.322222222222223,0.445
9.325,0.365
9.327777777777778,0.295
9.330555555555556,0.21
9.333333333333334,0.11
9.33611111111111,0.005
9.338888888888889,-0.15
9.341666666666667,-0.305
9.344444444444445,-0.45
9.347222222222221,-0.555
9.35,-0.66
9.352777777777778,-0.77
9.355555555555556,-0.87
9.358333333333333,-0.925
9.36111111111111,-0.95
9.363888888888889,-0.97
9.366666666666667,-0.96
9.369444444444444,-0.975
9.372222222222222,-0.975
9.375,-0.95
9.377777777777778,-0.94
9.380555555555556,-0.915
9.383333333333333,-0.895
9.386111111111111,-0.86
9.38888888888889,-0.84
9.391666666666667,-0.82
9.394444444444444,-0.775
9.397222222222222,-0.75
9.4,-0.72
9.402777777777779,-0.725
9.405555555555555,-0.705
9.408333333333333,-0.685
9.411111111111111,-0.64
9.41388888888889,-0.61
9.416666666666666,-0.61
9.419444444444444,-0.6
9.422222222222222,-0.61
9.425,-0.575
9.427777777777777,-0.545
9.430555555555555,-0.53
9.433333333333334,-0.53
9.436111111111112,-0.545
9.438888888888888,-0.555
9.441666666666666,-0.56
9.444444444444445,-0.555
9.447222222222223,-0.55
9.45,-0.545
9.452777777777778,-0.56
9.455555555555556,-0.565
9.458333333333334,-0.565
9.46111111111111,-0.565
9.463888888888889,-0.54
9.466666666666667,-0.56
9.469444444444445,-0.565
9.472222222222221,-0.58
9.475,-0.565
9.477777777777778,-0.555
9.480555555555556,-0.54
9.483333333333333,-0.55
9.48611111111111,-0.56
9.488888888888889,-0.56
9.491666666666667,-0.545
9.494444444444444,-0.54
9.497222222222222,-0.525
9.5,-0.535
9.502777777777778,-0.535
9.505555555555556,-0.545
9.508333333333333,-0.535
9.511111111111111,-0.525
9.51388888888889,-0.51
9.516666666666667,-0.505
9.519444444444444,-0.5
9.522222222222222,-0.5
9.525,-0.475
9.527777777777779,-0.46
9.530555555555555,-0.435
9.533333333333333,-0.435
9.536111111111111,-0.445
9.53888888888889,-0.445
9.541666666666666,-0.42
9.544444444444444,-0.41
9.547222222222222,-0.395
9.55,-0.385
9.552777777777777,-0.4
9.555555555555555,-0.38
9.558333333333334,-0.37
9.561111111111112,-0.36
9.563888888888888,-0.34
9.566666666666666,-0.32
9.569444444444445,-0.325
9.572222222222223,-0.33
9.575,-0.315
9.577777777777778,-0.285
9.580555555555556,-0.265
9.583333333333334,-0.255
9.58611111111111,-0.23
9.588888888888889,-0.225
9.591666666666667,-0.21
9.594444444444445,-0.205
9.597222222222221,-0.175
9.6,-0.175
9.602777777777778,-0.16
9.605555555555556,-0.175
9.608333333333333,-0.17
9.61111111111111,-0.16
9.613888888888889,-0.135
9.616666666666667,-0.14
9.619444444444444,-0.135
9.622222222222222,-0.135
9.625,-0.12
9.627777777777778,-0.11
9.630555555555556,-0.1
9.633333333333333,-0.085
9.636111111111111,-0.085
9.63888888888889,-0.09
9.641666666666667,-0.065
9.644444444444444,-0.05
9.647222222222222,-0.04
9.65,-0.05
9.652777777777779,-0.045
9.655555555555555,-0.05
9.658333333333333,-0.04
9.661111111111111,-0.02
9.66388888888889,-0.015
9.666666666666666,-0.035
9.669444444444444,-0.055
9.672222222222222,-0.075
9.675,-0.085
9.677777777777777,-0.05
9.680555555555555,-0.04
9.683333333333334,-0.04
9.686111111111112,-0.05
9.688888888888888,-0.055
9.691666666666666,-0.075
9.694444444444445,-0.075
9.697222222222223,-0.065
9.7,-0.065
9.702777777777778,-0.075
9.705555555555556,-0.08
9.708333333333334,-0.085
9.71111111111111,-0.075
9.713888888888889,-0.065
9.716666666666667,-0.07
9.719444444444445,-0.075
9.722222222222221,-0.095
9.725,-0.105
9.727777777777778,-0.09
9.730555555555556,-0.08
9.733333333333333,-0.08
9.73611111111111,-0.09
9.738888888888889,-0.11
9.741666666666667,-0.13
9.744444444444444,-0.135
9.747222222222222,-0.17
9.75,-0.185
9.752777777777778,-0.225
9.755555555555556,-0.265
9.758333333333333,-0.29
9.761111111111111,-0.305
9.76388888888889,-0.325
9.766666666666667,-0.34
9.769444444444444,-0.365
9.772222222222222,-0.36
9.775,-0.355
9.777777777777779,-0.35
9.780555555555555,-0.355
9.783333333333333,-0.36
9.786111111111111,-0.365
9.78888888888889,-0.375
9.791666666666666,-0.365
9.794444444444444,-0.365
9.797222222222222,-0.35
9.8,-0.36
9.802777777777777,-0.38
9.805555555555555,-0.37
9.808333333333334,-0.37
9.811111111111112,-0.35
9.813888888888888,-0.355
9.816666666666666,-0.375
9.819444444444445,-0.38
9.822222222222223,-0.395
9.825,-0.38
9.827777777777778,-0.365
9.830555555555556,-0.355
9.833333333333334,-0.335
9.83611111111111,-0.355
9.838888888888889,-0.365
9.841666666666667,-0.365
9.844444444444445,-0.37
9.847222222222221,-0.355
9.85,-0.36
9.852777777777778,-0.36
9.855555555555556,-0.37
9.858333333333333,-0.36
9.86111111111111,-0.365
9.863888888888889,-0.35
9.866666666666667,-0.35
9.869444444444444,-0.345
9.872222222222222,-0.37
9.875,-0.365
9.877777777777778,-0.355
9.880555555555556,-0.35
9.883333333333333,-0.345
9.886111111111111,-0.34
9.88888888888889,-0.33
9.891666666666667,-0.325
9.894444444444444,-0.32
9.897222222222222,-0.335
9.9,-0.36
9.902777777777779,-0.38
9.905555555555555,-0.39
9.908333333333333,-0.365
9.911111111111111,-0.32
9.91388888888889,-0.205
9.916666666666666,-0.08
9.919444444444444,0.025
9.922222222222222,0.085
9.925,0.145
9.927777777777777,0.17
9.930555555555555,0.195
9.933333333333334,0.24
9.936111111111112,0.295
9.938888888888888,0.355
9.941666666666666,0.43
9.944444444444445,0.51
9.947222222222223,0.585
9.95,0.595
9.952777777777778,0.59
9.955555555555556,0.55
9.958333333333334,0.545
9.96111111111111,0.54
9.963888888888889,0.53
9.966666666666667,0.505
9.969444444444445,0.435
9.972222222222221,0.36
9.975,0.3
9.977777777777778,0.235
9.980555555555556,0.175
9.983333333333333,0.11
9.98611111111111,0.0
9.988888888888889,-0.125
9.991666666666667,-0.245
9.994444444444444,-0.355
9.997222222222222,-0.465
10.0,-0.595
10.002777777777778,-0.7
10.005555555555556,-0.79
10.008333333333333,-0.84
10.011111111111111,-0.855
10.01388888888889,-0.865
10.016666666666667,-0.87
10.019444444444444,-0.885
10.022222222222222,-0.89
10.025,-0.89
10.027777777777779,-0.875
10.030555555555555,-0.855
10.033333333333333,-0.84
10.036111111111111,-0.825
10.03888888888889,-0.79
10.041666666666666,-0.755
10.044444444444444,-0.725
10.047222222222222,-0.705
10.05,-0.69
10.052777777777777,-0.685
10.055555555555555,-0.67
10.058333333333334,-0.635
10.061111111111112,-0.6
10.063888888888888,-0.585
10.066666666666666,-0.575
10.069444444444445,-0.565
10.072222222222223,-0.57
10.075,-0.56
10.077777777777778,-0.54
10.080555555555556,-0.525
10.083333333333334,-0.53
10.08611111111111,-0.54
10.088888888888889,-0.54
10.091666666666667,-0.545
10.094444444444445,-0.54
10.097222222222221,-0.53
10.1,-0.54
10.102777777777778,-0.545
10.105555555555556,-0.56
10.108333333333333,-0.57
10.11111111111111,-0.55
10.113888888888889,-0.53
10.116666666666667,-0.525
10.119444444444444,-0.535
10.122222222222222,-0.55
10.125,-0.56
10.127777777777778,-0.54
10.130555555555556,-0.535
10.133333333333333,-0.535
10.136111111111111,-0.535
10.13888888888889,-0.535
10.141666666666667,-0.54
10.144444444444444,-0.545
10.147222222222222,-0.555
10.15,-0.55
10.152777777777779,-0.545
10.155555555555555,-0.545
10.158333333333333,-0.535
10.161111111111111,-0.525
10.16388888888889,-0.51
10.166666666666666,-0.505
10.169444444444444,-0.485
10.172222222222222,-0.5
10.175,-0.485
10.177777777777777,-0.46
10.180555555555555,-0.435
10.183333333333334,-0.44
10.186111111111112,-0.44
10.188888888888888,-0.435
10.191666666666666,-0.415
10.194444444444445,-0.4
10.197222222222223,-0.395
10.2,-0.38
10.202777777777778,-0.39
10.205555555555556,-0.37
10.208333333333334,-0.35
10.21111111111111,-0.33
10.213888888888889,-0.315
10.216666666666667,-0.31
10.219444444444445,-0.3
10.222222222222221,-0.305
10.225,-0.29
10.227777777777778,-0.275
10.230555555555556,-0.25
10.233333333333333,-0.23
10.23611111111111,-0.23
10.238888888888889,-0.245
10.241666666666667,-0.23
10.244444444444444,-0.21
10.247222222222222,-0.185
10.25,-0.165
10.252777777777778,-0.165
10.255555555555556,-0.175
10.258333333333333,-0.165
10.261111111111111,-0.16
10.26388888888889,-0.135
10.266666666666667,-0.14
10.269444444444444,-0.155
10.272222222222222,-0.17
10.275,-0.155
10.277777777777779,-0.14
10.280555555555555,-0.12
10.283333333333333,-0.105
10.286111111111111,-0.1
10.28888888888889,-0.09
10.291666666666666,-0.08
10.294444444444444,-0.065
10.297222222222222,-0.055
10.3,-0.06
10.302777777777777,-0.06
10.305555555555555,-0.055
10.308333333333334,-0.05
10.311111111111112,-0.055
10.313888888888888,-0.065
10.316666666666666,-0.095
10.319444444444445,-0.1
10.322222222222223,-0.1
10.325,-0.085
10.327777777777778,-0.07
10.330555555555556,-0.06
10.333333333333334,-0.06
10.33611111111111,-0.06
10.338888888888889,-0.055
10.341666666666667,-0.05
10.344444444444445,-0.045
10.347222222222221,-0.035
10.35,-0.03
10.352777777777778,-0.055
10.355555555555556,-0.075
10.358333333333333,-0.095
10.36111111111111,-0.12
10.363888888888889,-0.125
10.366666666666667,-0.13
10.369444444444444,-0.14
10.372222222222222,-0.14
10.375,-0.135
10.377777777777778,-0.135
10.380555555555556,-0.16
10.383333333333333,-0.18
10.386111111111111,-0.215
10.38888888888889,-0.215
10.391666666666667,-0.215
10.394444444444444,-0.215
10.397222222222222,-0.245
10.4,-0.31
10.402777777777779,-0.385
10.405555555555555,-0.405
10.408333333333333,-0.38
10.411111111111111,-0.345
10.41388888888889,-0.33
10.416666666666666,-0.34
10.419444444444444,-0.395
10.422222222222222,-0.44
10.425,-0.435
10.427777777777777,-0.425
10.430555555555555,-0.405
10.433333333333334,-0.395
10.436111111111112,-0.4
10.438888888888888,-0.41
10.441666666666666,-0.395
10.444444444444445,-0.39
10.447222222222223,-0.395
10.45,-0.39
10.452777777777778,-0.395
10.455555555555556,-0.4
10.458333333333334,-0.385
10.46111111111111,-0.39
10.463888888888889,-0.37
10.466666666666667,-0.38
10.469444444444445,-0.385
10.472222222222221,-0.39
10.475,-0.385
10.477777777777778,-0.37
10.480555555555556,-0.355
10.483333333333333,-0.365
10.48611111111111,-0.38
10.488888888888889,-0.38
10.491666666666667,-0.385
10.494444444444444,-0.37
10.497222222222222,-0.355
10.5,-0.37
10.502777777777778,-0.375
10.505555555555556,-0.365
10.508333333333333,-0.355
10.511111111111111,-0.35
10.51388888888889,-0.345
10.516666666666667,-0.34
10.519444444444444,-0.34
10.522222222222222,-0.355
10.525,-0.37
10.527777777777779,-0.36
10.530555555555555,-0.385
10.533333333333333,-0.39
10.536111111111111,-0.405
10.53888888888889,-0.41
10.541666666666666,-0.37
10.544444444444444,-0.29
10.547222222222222,-0.17
10.55,-0.065
10.552777777777777,0.015
10.555555555555555,0.055
10.558333333333334,0.08
10.561111111111112,0.115
10.563888888888888,0.195
10.566666666666666,0.275
10.569444444444445,0.365
10.572222222222223,0.435
10.575,0.505
10.577777777777778,0.57
10.580555555555556,0.61
10.583333333333334,0.625
10.58611111111111,0.61
10.588888888888889,0.6
10.591666666666667,0.6
10.594444444444445,0.565
10.597222222222221,0.515
10.6,0.425
10.602777777777778,0.34
10.605555555555556,0.275
10.608333333333333,0.23
10.61111111111111,0.17
10.613888888888889,0.065
10.616666666666667,-0.05
10.619444444444444,-0.195
10.622222222222222,-0.33
10.625,-0.465
10.627777777777778,-0.58
10.630555555555556,-0.665
10.633333333333333,-0.725
10.636111111111111,-0.785
10.63888888888889,-0.825
10.641666666666667,-0.85
10.644444444444444,-0.855
10.647222222222222,-0.86
10.65,-0.84
10.652777777777779,-0.85
10.655555555555555,-0.87
10.658333333333333,-0.87
10.661111111111111,-0.845
10.66388888888889,-0.81
10.666666666666666,-0.775
10.669444444444444,-0.755
10.672222222222222,-0.76
10.675,-0.715
10.677777777777777,-0.695
10.680555555555555,-0.68
10.683333333333334,-0.65
10.686111111111112,-0.64
10.688888888888888,-0.615
10.691666666666666,-0.595
10.694444444444445,-0.57
10.697222222222223,-0.545
10.7,-0.54
10.702777777777778,-0.53
10.705555555555556,-0.55
10.708333333333334,-0.54
10.71111111111111,-0.52
10.713888888888889,-0.51
10.716666666666667,-0.5
10.719444444444445,-0.515
10.722222222222221,-0.53
10.725,-0.52
10.727777777777778,-0.51
10.730555555555556,-0.505
10.733333333333333,-0.525
10.73611111111111,-0.535
10.738888888888889,-0.55
10.741666666666667,-0.55
10.744444444444444,-0.545
10.747222222222222,-0.535
10.75,-0.525
10.752777777777778,-0.535
10.755555555555556,-0.545
10.758333333333333,-0.545
10.761111111111111,-0.53
10.76388888888889,-0.53
10.766666666666667,-0.54
10.769444444444444,-0.535
10.772222222222222,-0.55
10.775,-0.545
10.777777777777779,-0.535
10.780555555555555,-0.525
10.783333333333333,-0.525
10.786111111111111,-0.53
10.78888888888889,-0.525
10.791666666666666,-0.52
10.794444444444444,-0.51
10.797222222222222,-0.485
10.8,-0.485
10.802777777777777,-0.495
10.805555555555555,-0.5
10.808333333333334,-0.475
10.811111111111112,-0.46
10.813888888888888,-0.435
10.816666666666666,-0.435
10.819444444444445,-0.425
10.822222222222223,-0.41
10.825,-0.39
10.827777777777778,-0.365
10.830555555555556,-0.36
10.833333333333334,-0.35
10.83611111111111,-0.335
10.838888888888889,-0.345
10.841666666666667,-0.345
10.844444444444445,-0.33
10.847222222222221,-0.325
10.85,-0.32
10.852777777777778,-0.315
10.855555555555556,-0.32
10.858333333333333,-0.305
10.86111111111111,-0.3
10.863888888888889,-0.285
10.866666666666667,-0.24
10.869444444444444,-0.2
10.872222222222222,-0.17
10.875,-0.165
10.877777777777778,-0.17
10.880555555555556,-0.19
10.883333333333333,-0.215
10.886111111111111,-0.245
10.88888888888889,-0.235
10.891666666666667,-0.215
10.894444444444444,-0.18
10.897222222222222,-0.165
10.9,-0.145
10.902777777777779,-0.135
10.905555555555555,-0.14
10.908333333333333,-0.11
10.911111111111111,-0.085
10.91388888888889,-0.055
10.916666666666666,-0.045
10.919444444444444,-0.045
10.922222222222222,-0.05
10.925,-0.04
10.927777777777777,-0.03
10.930555555555555,-0.01
10.933333333333334,-0.015
10.936111111111112,-0.01
10.938888888888888,-0.03
10.941666666666666,-0.04
10.944444444444445,-0.035
10.947222222222223,-0.045
10.95,-0.055
10.952777777777778,-0.055
10.955555555555556,-0.06
10.958333333333334,-0.04
10.96111111111111,-0.025
10.963888888888889,-0.015
10.966666666666667,-0.01
10.969444444444445,-0.025
10.972222222222221,-0.04
10.975,-0.035
10.977777777777778,-0.035
10.980555555555556,-0.025
10.983333333333333,-0.05
10.98611111111111,-0.07
10.988888888888889,-0.075
10.991666666666667,-0.075
10.994444444444444,-0.06
10.997222222222222,-0.06
11.0,-0.055
11.002777777777778,-0.07
11.005555555555556,-0.07
11.008333333333333,-0.07
11.011111111111111,-0.085
11.01388888888889,-0.105
11.016666666666667,-0.155
11.019444444444444,-0.185
11.022222222222222,-0.22
11.025,-0.245
11.027777777777779,-0.275
11.030555555555555,-0.29
11.033333333333333,-0.31
11.036111111111111,-0.325
11.03888888888889,-0.36
11.041666666666666,-0.35
11.044444444444444,-0.355
11.047222222222222,-0.355
11.05,-0.36
11.052777777777777,-0.36
11.055555555555555,-0.375
11.058333333333334,-0.395
11.061111111111112,-0.37
11.063888888888888,-0.375
11.066666666666666,-0.37
11.069444444444445,-0.38
11.072222222222223,-0.4
11.075,-0.39
11.077777777777778,-0.38
11.080555555555556,-0.37
11.083333333333334,-0.375
11.08611111111111,-0.4
11.088888888888889,-0.4
11.091666666666667,-0.385
11.094444444444445,-0.38
11.097222222222221,-0.365
11.1,-0.365
11.102777777777778,-0.39
11.105555555555556,-0.385
11.108333333333333,-0.375
11.11111111111111,-0.365
11.113888888888889,-0.35
11.116666666666667,-0.36
11.119444444444444,-0.37
11.122222222222222,-0.375
11.125,-0.365
11.127777777777778,-0.365
11.130555555555556,-0.36
11.133333333333333,-0.35
11.136111111111111,-0.355
11.13888888888889,-0.36
11.141666666666667,-0.355
11.144444444444444,-0.345
11.147222222222222,-0.335
11.15,-0.335
11.152777777777779,-0.35
11.155555555555555,-0.36
11.158333333333333,-0.37
11.161111111111111,-0.36
11.16388888888889,-0.375
11.166666666666666,-0.405
11.169444444444444,-0.425
11.172222222222222,-0.425
11.175,-0.38
11.177777777777777,-0.3
11.180555555555555,-0.2
11.183333333333334,-0.09
11.186111111111112,0.005
11.188888888888888,0.075
11.191666666666666,0.125
11.194444444444445,0.165
11.197222222222223,0.245
11.2,0.345
11.202777777777778,0.455
11.205555555555556,0.535
11.208333333333334,0.64
11.21111111111111,0.725
11.213888888888889,0.785
11.216666666666667,0.82
11.219444444444445,0.82
11.222222222222221,0.795
11.225,0.775
11.227777777777778,0.755
11.230555555555556,0.7
11.233333333333333,0.6
11.23611111111111,0.5
11.238888888888889,0.41
11.241666666666667,0.33
11.244444444444444,0.27
11.247222222222222,0.17
11.25,0.05
11.252777777777778,-0.105
11.255555555555556,-0.265
11.258333333333333,-0.385
11.261111111111111,-0.5
11.26388888888889,-0.62
11.266666666666667,-0.745
11.269444444444444,-0.81
11.272222222222222,-0.86
11.275,-0.895
11.277777777777779,-0.905
11.280555555555555,-0.9
11.283333333333333,-0.9
11.286111111111111,-0.915
11.28888888888889,-0.93
11.291666666666666,-0.915
11.294444444444444,-0.895
11.297222222222222,-0.855
11.3,-0.82
11.302777777777777,-0.785
11.305555555555555,-0.775
11.308333333333334,-0.745
11.311111111111112,-0.715
11.313888888888888,-0.71
11.316666666666666,-0.68
11.319444444444445,-0.67
11.322222222222223,-0.67
11.325,-0.635
11.327777777777778,-0.61
11.330555555555556,-0.58
11.333333333333334,-0.565
11.33611111111111,-0.575
11.338888888888889,-0.57
11.341666666666667,-0.555
11.344444444444445,-0.545
11.347222222222221,-0.545
11.35,-0.53
11.352777777777778,-0.545
11.355555555555556,-0.56
11.358333333333333,-0.55
11.36111111111111,-0.535
11.363888888888889,-0.535
11.366666666666667,-0.545
11.369444444444444,-0.55
11.372222222222222,-0.555
11.375,-0.56
11.377777777777778,-0.555
11.380555555555556,-0.555
11.383333333333333,-0.56
11.386111111111111,-0.57
11.38888888888889,-0.58
11.391666666666667,-0.565
11.394444444444444,-0.55
11.397222222222222,-0.55
11.4,-0.55
11.402777777777779,-0.56
11.405555555555555,-0.575
11.408333333333333,-0.565
11.411111111111111,-0.56
11.41388888888889,-0.555
11.416666666666666,-0.54
11.419444444444444,-0.55
11.422222222222222,-0.55
11.425,-0.56
11.427777777777777,-0.545
11.430555555555555,-0.53
11.433333333333334,-0.515
11.436111111111112,-0.515
11.438888888888888,-0.525
11.441666666666666,-0.505
11.444444444444445,-0.49
11.447222222222223,-0.485
11.45,-0.47
11.452777777777778,-0.46
11.455555555555556,-0.465
11.458333333333334,-0.45
11.46111111111111,-0.43
11.463888888888889,-0.41
11.466666666666667,-0.395
11.469444444444445,-0.395
11.472222222222221,-0.39
11.475,-0.385
11.477777777777778,-0.365
11.480555555555556,-0.32
11.483333333333333,-0.32
11.48611111111111,-0.31
11.488888888888889,-0.32
11.491666666666667,-0.295
11.494444444444444,-0.275
11.497222222222222,-0.265
11.5,-0.265
11.502777777777778,-0.25
11.505555555555556,-0.245
11.508333333333333,-0.235
11.511111111111111,-0.21
11.51388888888889,-0.195
11.516666666666667,-0.185
11.519444444444444,-0.18
11.522222222222222,-0.185
11.525,-0.17
11.527777777777779,-0.15
11.530555555555555,-0.145
11.533333333333333,-0.13
11.536111111111111,-0.135
11.53888888888889,-0.135
11.541666666666666,-0.12
11.544444444444444,-0.1
11.547222222222222,-0.075
11.55,-0.065
11.552777777777777,-0.055
11.555555555555555,-0.055
11.558333333333334,-0.045
11.561111111111112,-0.015
11.563888888888888,-0.005
11.566666666666666,-0.01
11.569444444444445,-0.005
11.572222222222223,-0.025
11.575,-0.02
11.577777777777778,-0.04
11.580555555555556,-0.03
11.583333333333334,-0.03
11.58611111111111,-0.04
11.588888888888889,-0.05
11.591666666666667,-0.04
11.594444444444445,-0.035
11.597222222222221,-0.02
11.6,-0.01
11.602777777777778,-0.02
11.605555555555556,-0.03
11.608333333333333,-0.035
11.61111111111111,-0.03
11.613888888888889,-0.025
11.616666666666667,-0.03
11.619444444444444,-0.035
11.622222222222222,-0.055
11.625,-0.065
11.627777777777778,-0.07
11.630555555555556,-0.055
11.633333333333333,-0.07
11.636111111111111,-0.07
11.63888888888889,-0.08
11.641666666666667,-0.08
11.644444444444444,-0.075
11.647222222222222,-0.095
11.65,-0.12
11.652777777777779,-0.16
11.655555555555555,-0.22
11.658333333333333,-0.24
11.661111111111111,-0.265
11.66388888888889,-0.275
11.666666666666666,-0.3
11.669444444444444,-0.335
11.672222222222222,-0.355
11.675,-0.35
11.677777777777777,-0.36
11.680555555555555,-0.355
11.683333333333334,-0.36
11.686111111111112,-0.38
11.688888888888888,-0.405
11.691666666666666,-0.4
11.694444444444445,-0.385
11.697222222222223,-0.375
11.7,-0.37
11.702777777777778,-0.38
11.705555555555556,-0.395
11.708333333333334,-0.39
11.71111111111111,-0.38
11.713888888888889,-0.38
11.716666666666667,-0.385
11.719444444444445,-0.39
11.722222222222221,-0.395
11.725,-0.39
11.727777777777778,-0.38
11.730555555555556,-0.38
11.733333333333333,-0.39
11.73611111111111,-0.395
11.738888888888889,-0.415
11.741666666666667,-0.395
11.744444444444444,-0.385
11.747222222222222,-0.37
11.75,-0.37
11.752777777777778,-0.37
11.755555555555556,-0.39
11.758333333333333,-0.395
11.761111111111111,-0.395
11.76388888888889,-0.38
11.766666666666667,-0.375
11.769444444444444,-0.38
11.772222222222222,-0.395
11.775,-0.385
11.777777777777779,-0.375
11.780555555555555,-0.365
11.783333333333333,-0.37
11.786111111111111,-0.375
11.78888888888889,-0.4
11.791666666666666,-0.405
11.794444444444444,-0.425
11.797222222222222,-0.415
11.8,-0.4
11.802777777777777,-0.37
11.805555555555555,-0.255
11.808333333333334,-0.1
11.811111111111112,0.07
11.813888888888888,0.185
11.816666666666666,0.27
11.819444444444445,0.32
11.822222222222223,0.375
11.825,0.49
11.827777777777778,0.61
11.830555555555556,0.715
11.833333333333334,0.82
11.83611111111111,0.9
11.838888888888889,0.92
11.841666666666667,0.93
11.844444444444445,0.91
11.847222222222221,0.885
11.85,0.815
11.852777777777778,0.705
11.855555555555556,0.57
11.858333333333333,0.44
11.86111111111111,0.325
11.863888888888889,0.24
11.866666666666667,0.11
11.869444444444444,-0.025
11.872222222222222,-0.205
11.875,-0.375
11.877777777777778,-0.515
11.880555555555556,-0.645
11.883333333333333,-0.785
11.886111111111111,-0.9
11.88888888888889,-0.98
11.891666666666667,-1.01
11.894444444444444,-1.03
11.897222222222222,-1.04
11.9,-1.02
11.902777777777779,-1.015
11.905555555555555,-1.025
11.908333333333333,-1.01
11.911111111111111,-0.99
11.91388888888889,-0.955
11.916666666666666,-0.905
11.919444444444444,-0.87
11.922222222222222,-0.84
11.925,-0.83
11.927777777777777,-0.79
11.930555555555555,-0.78
11.933333333333334,-0.75
11.936111111111112,-0.735
11.938888888888888,-0.715
11.941666666666666,-0.685
11.944444444444445,-0.655
11.947222222222223,-0.63
11.95,-0.62
11.952777777777778,-0.62
11.955555555555556,-0.635
11.958333333333334,-0.625
11.96111111111111,-0.61
11.963888888888889,-0.605
11.966666666666667,-0.61
11.969444444444445,-0.625
11.972222222222221,-0.63
11.975,-0.635
11.977777777777778,-0.63
11.980555555555556,-0.62
11.983333333333333,-0.625
11.98611111111111,-0.64
11.988888888888889,-0.64
11.991666666666667,-0.64
11.994444444444444,-0.645
11.997222222222222,-0.64
12.0,-0.645
12.002777777777778,-0.635
12.005555555555556,-0.65
12.008333333333333,-0.65
12.011111111111111,-0.63
12.01388888888889,-0.63
12.016666666666667,-0.625
12.019444444444444,-0.64
12.022222222222222,-0.645
12.025,-0.635
12.027777777777779,-0.625
12.030555555555555,-0.61
12.033333333333333,-0.61
12.036111111111111,-0.615
12.03888888888889,-0.615
12.041666666666666,-0.595
12.044444444444444,-0.58
12.047222222222222,-0.565
12.05,-0.57
12.052777777777777,-0.565
12.055555555555555,-0.55
12.058333333333334,-0.53
12.061111111111112,-0.51
12.063888888888888,-0.49
12.066666666666666,-0.495
12.069444444444445,-0.475
12.072222222222223,-0.48
12.075,-0.46
12.077777777777778,-0.44
12.080555555555556,-0.42
12.083333333333334,-0.405
12.08611111111111,-0.395
12.088888888888889,-0.385
12.091666666666667,-0.375
12.094444444444445,-0.36
12.097222222222221,-0.33
12.1,-0.305
12.102777777777778,-0.305
12.105555555555556,-0.325
12.108333333333333,-0.3
12.11111111111111,-0.28
12.113888888888889,-0.255
12.116666666666667,-0.24
12.119444444444444,-0.235
12.122222222222222,-0.225
12.125,-0.215
12.127777777777778,-0.205
12.130555555555556,-0.185
12.133333333333333,-0.17
12.136111111111111,-0.17
12.13888888888889,-0.165
12.141666666666667,-0.145
12.144444444444444,-0.115
12.147222222222222,-0.1
12.15,-0.1
12.152777777777779,-0.105
12.155555555555555,-0.095
12.158333333333333,-0.095
12.161111111111111,-0.08
12.16388888888889,-0.075
12.166666666666666,-0.08
12.169444444444444,-0.085
12.172222222222222,-0.11
12.175,-0.115
12.177777777777777,-0.11
12.180555555555555,-0.11
12.183333333333334,-0.095
12.186111111111112,-0.095
12.188888888888888,-0.085
12.191666666666666,-0.07
12.194444444444445,-0.08
12.197222222222223,-0.07
12.2,-0.09
12.202777777777778,-0.095
12.205555555555556,-0.1
12.208333333333334,-0.095
12.21111111111111,-0.1
12.213888888888889,-0.11
12.216666666666667,-0.125
12.219444444444445,-0.14
12.222222222222221,-0.15
12.225,-0.145
12.227777777777778,-0.14
12.230555555555556,-0.12
12.233333333333333,-0.13
12.23611111111111,-0.155
12.238888888888889,-0.185
12.241666666666667,-0.22
12.244444444444444,-0.235
12.247222222222222,-0.265
12.25,-0.31
12.252777777777778,-0.36
12.255555555555556,-0.405
12.258333333333333,-0.41
12.261111111111111,-0.405
12.26388888888889,-0.42
12.266666666666667,-0.42
12.269444444444444,-0.435
12.272222222222222,-0.46
12.275,-0.455
12.277777777777779,-0.445
12.280555555555555,-0.45
12.283333333333333,-0.445
12.286111111111111,-0.455
12.28888888888889,-0.465
12.291666666666666,-0.46
12.294444444444444,-0.46
12.297222222222222,-0.46
12.3,-0.46
12.302777777777777,-0.47
12.305555555555555,-0.48
12.308333333333334,-0.475
12.311111111111112,-0.465
12.313888888888888,-0.45
12.316666666666666,-0.45
12.319444444444445,-0.445
12.322222222222223,-0.445
12.325,-0.44
12.327777777777778,-0.445
12.330555555555556,-0.445
12.333333333333334,-0.455
12.33611111111111,-0.45
12.338888888888889,-0.45
12.341666666666667,-0.445
12.344444444444445,-0.44
12.347222222222221,-0.43
12.35,-0.425
12.352777777777778,-0.43
12.355555555555556,-0.445
12.358333333333333,-0.44
12.36111111111111,-0.42
12.363888888888889,-0.42
12.366666666666667,-0.41
12.369444444444444,-0.415
12.372222222222222,-0.42
12.375,-0.41
12.377777777777778,-0.42
12.380555555555556,-0.415
12.383333333333333,-0.41
12.386111111111111,-0.41
12.38888888888889,-0.445
12.391666666666667,-0.445
12.394444444444444,-0.435
12.397222222222222,-0.415
12.4,-0.37
12.402777777777779,-0.28
12.405555555555555,-0.16
12.408333333333333,-0.015
12.411111111111111,0.1
12.41388888888889,0.195
12.416666666666666,0.26
12.419444444444444,0.275
12.422222222222222,0.305
12.425,0.385
12.427777777777777,0.485
12.430555555555555,0.575
12.433333333333334,0.64
12.436111111111112,0.695
12.438888888888888,0.695
12.441666666666666,0.675
12.444444444444445,0.64
12.447222222222223,0.61
12.45,0.57
12.452777777777778,0.505
12.455555555555556,0.4
12.458333333333334,0.31
12.46111111111111,0.225
12.463888888888889,0.135
12.466666666666667,0.055
12.469444444444445,-0.05
12.472222222222221,-0.19
12.475,-0.345
12.477777777777778,-0.48
12.480555555555556,-0.605
12.483333333333333,-0.735
12.48611111111111,-0.855
12.488888888888889,-0.945
12.491666666666667,-1.0
12.494444444444444,-1.015
12.497222222222222,-1.03
12.5,-1.03
12.502777777777778,-1.03
12.505555555555556,-1.03
12.508333333333333,-1.025
12.511111111111111,-1.005
12.51388888888889,-0.97
12.516666666666667,-0.935
12.519444444444444,-0.905
12.522222222222222,-0.885
12.525,-0.85
12.527777777777779,-0.82
12.530555555555555,-0.81
12.533333333333333,-0.795
12.536111111111111,-0.78
12.53888888888889,-0.755
12.541666666666666,-0.71
12.544444444444444,-0.68
12.547222222222222,-0.66
12.55,-0.65
12.552777777777777,-0.655
12.555555555555555,-0.65
12.558333333333334,-0.635
12.561111111111112,-0.625
12.563888888888888,-0.625
12.566666666666666,-0.625
12.569444444444445,-0.62
12.572222222222223,-0.64
12.575,-0.64
12.577777777777778,-0.63
12.580555555555556,-0.61
12.583333333333334,-0.625
12.58611111111111,-0.625
12.588888888888889,-0.65
12.591666666666667,-0.63
12.594444444444445,-0.625
12.597222222222221,-0.62
12.6,-0.63
12.602777777777778,-0.64
12.605555555555556,-0.645
12.608333333333333,-0.64
12.61111111111111,-0.625
12.613888888888889,-0.605
12.616666666666667,-0.625
12.619444444444444,-0.625
12.622222222222222,-0.63
12.625,-0.615
12.627777777777778,-0.61
12.630555555555556,-0.595
12.633333333333333,-0.58
12.636111111111111,-0.585
12.63888888888889,-0.585
12.641666666666667,-0.57
12.644444444444444,-0.555
12.647222222222222,-0.545
12.65,-0.53
12.652777777777779,-0.525
12.655555555555555,-0.515
12.658333333333333,-0.5
12.661111111111111,-0.475
12.66388888888889,-0.455
12.666666666666666,-0.45
12.669444444444444,-0.43
12.672222222222222,-0.435
12.675,-0.425
12.677777777777777,-0.395
12.680555555555555,-0.375
12.683333333333334,-0.36
12.686111111111112,-0.345
12.688888888888888,-0.345
12.691666666666666,-0.325
12.694444444444445,-0.305
12.697222222222223,-0.285
12.7,-0.275
12.702777777777778,-0.265
12.705555555555556,-0.265
12.708333333333334,-0.245
12.71111111111111,-0.23
12.713888888888889,-0.215
12.716666666666667,-0.2
12.719444444444445,-0.195
12.722222222222221,-0.195
12.725,-0.18
12.727777777777778,-0.17
12.730555555555556,-0.15
12.733333333333333,-0.145
12.73611111111111,-0.145
12.738888888888889,-0.13
12.741666666666667,-0.135
12.744444444444444,-0.11
12.747222222222222,-0.09
12.75,-0.1
12.752777777777778,-0.085
12.755555555555556,-0.085
12.758333333333333,-0.08
12.761111111111111,-0.06
12.76388888888889,-0.055
12.766666666666667,-0.09
12.769444444444444,-0.11
12.772222222222222,-0.14
12.775,-0.13
12.777777777777779,-0.115
12.780555555555555,-0.1
12.783333333333333,-0.085
12.786111111111111,-0.085
12.78888888888889,-0.1
12.791666666666666,-0.085
12.794444444444444,-0.09
12.797222222222222,-0.09
12.8,-0.09
12.802777777777777,-0.11
12.805555555555555,-0.125
12.808333333333334,-0.125
12.811111111111112,-0.115
12.813888888888888,-0.12
12.816666666666666,-0.12
12.819444444444445,-0.135
12.822222222222223,-0.14
12.825,-0.14
12.827777777777778,-0.155
12.830555555555556,-0.17
12.833333333333334,-0.21
12.83611111111111,-0.245
12.838888888888889,-0.275
12.841666666666667,-0.305
12.844444444444445,-0.32
12.847222222222221,-0.35
12.85,-0.375
12.852777777777778,-0.39
12.855555555555556,-0.415
12.858333333333333,-0.415
12.86111111111111,-0.41
12.863888888888889,-0.41
12.866666666666667,-0.41
12.869444444444444,-0.415
12.872222222222222,-0.425
12.875,-0.425
12.877777777777778,-0.425
12.880555555555556,-0.415
12.883333333333333,-0.425
12.886111111111111,-0.425
12.88888888888889,-0.435
12.891666666666667,-0.43
12.894444444444444,-0.415
12.897222222222222,-0.41
12.9,-0.415
12.902777777777779,-0.425
12.905555555555555,-0.43
12.908333333333333,-0.435
12.911111111111111,-0.43
12.91388888888889,-0.41
12.916666666666666,-0.405
12.919444444444444,-0.435
12.922222222222222,-0.41
12.925,-0.415
12.927777777777777,-0.415
12.930555555555555,-0.405
12.933333333333334,-0.405
12.936111111111112,-0.42
12.938888888888888,-0.425
12.941666666666666,-0.405
12.944444444444445,-0.4
12.947222222222223,-0.395
12.95,-0.385
12.952777777777778,-0.385
12.955555555555556,-0.395
12.958333333333334,-0.385
12.96111111111111,-0.375
12.963888888888889,-0.37
12.966666666666667,-0.375
12.969444444444445,-0.39
12.972222222222221,-0.42
12.975,-0.42
12.977777777777778,-0.415
12.980555555555556,-0.39
12.983333333333333,-0.305
12.98611111111111,-0.185
12.988888888888889,-0.065
12.991666666666667,0.04
12.994444444444444,0.11
12.997222222222222,0.14
13.0,0.155
13.002777777777778,0.215
13.005555555555556,0.305
13.008333333333333,0.405
13.011111111111111,0.495
13.01388888888889,0.575
13.016666666666667,0.63
13.019444444444444,0.655
13.022222222222222,0.64
13.025,0.63
13.027777777777779,0.625
13.030555555555555,0.625
13.033333333333333,0.575
13.036111111111111,0.5
13.03888888888889,0.4
13.041666666666666,0.325
13.044444444444444,0.28
13.047222222222222,0.21
13.05,0.145
13.052777777777777,0.04
13.055555555555555,-0.09
13.058333333333334,-0.225
13.061111111111112,-0.38
13.063888888888888,-0.485
13.066666666666666,-0.625
13.069444444444445,-0.74
13.072222222222223,-0.82
13.075,-0.87
13.077777777777778,-0.885
13.080555555555556,-0.9
13.083333333333334,-0.925
13.08611111111111,-0.93
13.088888888888889,-0.935
13.091666666666667,-0.915
13.094444444444445,-0.915
13.097222222222221,-0.895
13.1,-0.87
13.102777777777778,-0.85
13.105555555555556,-0.82
13.108333333333333,-0.79
13.11111111111111,-0.745
13.113888888888889,-0.73
13.116666666666667,-0.715
13.119444444444444,-0.72
13.122222222222222,-0.695
13.125,-0.66
13.127777777777778,-0.63
13.130555555555556,-0.605
13.133333333333333,-0.595
13.136111111111111,-0.59
13.13888888888889,-0.585
13.141666666666667,-0.57
13.144444444444444,-0.57
13.147222222222222,-0.555
13.15,-0.555
13.152777777777779,-0.56
13.155555555555555,-0.58
13.158333333333333,-0.57
13.161111111111111,-0.57
13.16388888888889,-0.565
13.166666666666666,-0.57
13.169444444444444,-0.565
13.172222222222222,-0.585
13.175,-0.575
13.177777777777777,-0.575
13.180555555555555,-0.565
13.183333333333334,-0.575
13.186111111111112,-0.585
13.188888888888888,-0.595
13.191666666666666,-0.585
13.194444444444445,-0.585
13.197222222222223,-0.58
13.2,-0.585
13.202777777777778,-0.59
13.205555555555556,-0.585
13.208333333333334,-0.585
13.21111111111111,-0.565
13.213888888888889,-0.555
13.216666666666667,-0.55
13.219444444444445,-0.56
13.222222222222221,-0.565
13.225,-0.55
13.227777777777778,-0.535
13.230555555555556,-0.52
13.233333333333333,-0.52
13.23611111111111,-0.52
13.238888888888889,-0.52
13.241666666666667,-0.505
13.244444444444444,-0.485
13.247222222222222,-0.46
13.25,-0.46
13.252777777777778,-0.45
13.255555555555556,-0.46
13.258333333333333,-0.44
13.261111111111111,-0.41
13.26388888888889,-0.38
13.266666666666667,-0.38
13.269444444444444,-0.36
13.272222222222222,-0.36
13.275,-0.34
13.277777777777779,-0.32
13.280555555555555,-0.31
13.283333333333333,-0.285
13.286111111111111,-0.29
13.28888888888889,-0.28
13.291666666666666,-0.26
13.294444444444444,-0.235
13.297222222222222,-0.22
13.3,-0.21
13.302777777777777,-0.205
13.305555555555555,-0.2
13.308333333333334,-0.18
13.311111111111112,-0.17
13.313888888888888,-0.15
13.316666666666666,-0.14
13.319444444444445,-0.145
13.322222222222223,-0.145
13.325,-0.12
13.327777777777778,-0.105
13.330555555555556,-0.085
13.333333333333334,-0.085
13.33611111111111,-0.075
13.338888888888889,-0.075
13.341666666666667,-0.06
13.344444444444445,-0.04
13.347222222222221,-0.025
13.35,-0.015
13.352777777777778,-0.03
13.355555555555556,-0.035
13.358333333333333,-0.025
13.36111111111111,-0.01
13.363888888888889,-0.025
13.366666666666667,-0.035
13.369444444444444,-0.065
13.372222222222222,-0.075
13.375,-0.065
13.377777777777778,-0.05
13.380555555555556,-0.03
13.383333333333333,-0.02
13.386111111111111,-0.03
13.38888888888889,-0.03
13.391666666666667,-0.035
13.394444444444444,-0.05
13.397222222222222,-0.03
13.4,-0.035
13.402777777777779,-0.04
13.405555555555555,-0.055
13.408333333333333,-0.065
13.411111111111111,-0.075
13.41388888888889,-0.07
13.416666666666666,-0.07
13.419444444444444,-0.075
13.422222222222222,-0.085
13.425,-0.07
13.427777777777777,-0.08
13.430555555555555,-0.09
13.433333333333334,-0.14
13.436111111111112,-0.175
13.438888888888888,-0.215
13.441666666666666,-0.245
13.444444444444445,-0.26
13.447222222222223,-0.275
13.45,-0.3
13.452777777777778,-0.34
13.455555555555556,-0.355
13.458333333333334,-0.35
13.46111111111111,-0.34
13.463888888888889,-0.355
13.466666666666667,-0.355
13.469444444444445,-0.38
13.472222222222221,-0.385
13.475,-0.385
13.477777777777778,-0.375
13.480555555555556,-0.38
13.483333333333333,-0.375
13.48611111111111,-0.37
13.488888888888889,-0.375
13.491666666666667,-0.385
13.494444444444444,-0.37
13.497222222222222,-0.365
13.5,-0.365
13.502777777777778,-0.375
13.505555555555556,-0.38
13.508333333333333,-0.37
13.511111111111111,-0.36
13.51388888888889,-0.355
13.516666666666667,-0.35
13.519444444444444,-0.37
13.522222222222222,-0.38
13.525,-0.365
13.527777777777779,-0.37
13.530555555555555,-0.355
13.533333333333333,-0.365
13.536111111111111,-0.355
13.53888888888889,-0.35
13.541666666666666,-0.35
13.544444444444444,-0.34
13.547222222222222,-0.33
13.55,-0.33
13.552777777777777,-0.335
13.555555555555555,-0.34
13.558333333333334,-0.34
13.561111111111112,-0.325
13.563888888888888,-0.305
13.566666666666666,-0.32
13.569444444444445,-0.335
13.572222222222223,-0.36
13.575,-0.375
13.577777777777778,-0.38
13.580555555555556,-0.395
13.583333333333334,-0.375
13.58611111111111,-0.345
13.588888888888889,-0.27
13.591666666666667,-0.125
13.594444444444445,-0.005
13.597222222222221,0.085
13.6,0.125
13.602777777777778,0.145
13.605555555555556,0.185
13.608333333333333,0.295
13.61111111111111,0.405
13.613888888888889,0.525
13.616666666666667,0.615
13.619444444444444,0.695
13.622222222222222,0.745
13.625,0.785
13.627777777777778,0.81
13.630555555555556,0.82
13.633333333333333,0.815
13.636111111111111,0.775
13.63888888888889,0.715
13.641666666666667,0.625
13.644444444444444,0.53
13.647222222222222,0.455
13.65,0.39
13.652777777777779,0.29
13.655555555555555,0.16
13.658333333333333,0.055
13.661111111111111,-0.07
13.66388888888889,-0.22
13.666666666666666,-0.38
13.669444444444444,-0.535
13.672222222222222,-0.655
13.675,-0.74
13.677777777777777,-0.775
13.680555555555555,-0.805
13.683333333333334,-0.845
13.686111111111112,-0.86
13.688888888888888,-0.88
13.691666666666666,-0.875
13.694444444444445,-0.87
13.697222222222223,-0.865
13.7,-0.865
13.702777777777778,-0.85
13.705555555555556,-0.84
13.708333333333334,-0.79
13.71111111111111,-0.75
13.713888888888889,-0.715
13.716666666666667,-0.705
13.719444444444445,-0.7
13.722222222222221,-0.685
13.725,-0.655
13.727777777777778,-0.63
13.730555555555556,-0.59
13.733333333333333,-0.58
13.73611111111111,-0.57
13.738888888888889,-0.565
13.741666666666667,-0.54
13.744444444444444,-0.525
13.747222222222222,-0.505
13.75,-0.505
13.752777777777778,-0.51
13.755555555555556,-0.515
13.758333333333333,-0.515
13.761111111111111,-0.51
13.76388888888889,-0.505
13.766666666666667,-0.51
13.769444444444444,-0.515
13.772222222222222,-0.535
13.775,-0.53
13.777777777777779,-0.53
13.780555555555555,-0.515
13.783333333333333,-0.52
13.786111111111111,-0.525
13.78888888888889,-0.54
13.791666666666666,-0.535
13.794444444444444,-0.515
13.797222222222222,-0.515
13.8,-0.52
13.802777777777777,-0.535
13.805555555555555,-0.545
13.808333333333334,-0.52
13.811111111111112,-0.51
13.813888888888888,-0.505
13.816666666666666,-0.52
13.819444444444445,-0.52
13.822222222222223,-0.525
13.825,-0.505
13.827777777777778,-0.495
13.830555555555556,-0.5
13.833333333333334,-0.495
13.83611111111111,-0.5
13.838888888888889,-0.5
13.841666666666667,-0.48
13.844444444444445,-0.46
13.847222222222221,-0.455
13.85,-0.45
13.852777777777778,-0.45
13.855555555555556,-0.45
13.858333333333333,-0.435
13.86111111111111,-0.405
13.863888888888889,-0.39
13.866666666666667,-0.375
13.869444444444444,-0.375
13.872222222222222,-0.375
13.875,-0.355
13.877777777777778,-0.335
13.880555555555556,-0.315
13.883333333333333,-0.3
13.886111111111111,-0.29
13.88888888888889,-0.3
13.891666666666667,-0.285
13.894444444444444,-0.255
13.897222222222222,-0.24
13.9,-0.23
13.902777777777779,-0.22
13.905555555555555,-0.22
13.908333333333333,-0.2
13.911111111111111,-0.185
13.91388888888889,-0.15
13.916666666666666,-0.16
13.919444444444444,-0.15
13.922222222222222,-0.15
13.925,-0.12
13.927777777777777,-0.105
13.930555555555555,-0.1
13.933333333333334,-0.095
13.936111111111112,-0.085
13.938888888888888,-0.075
13.941666666666666,-0.065
13.944444444444445,-0.035
13.947222222222223,-0.02
13.95,-0.01
13.952777777777778,-0.01
13.955555555555556,0.005
13.958333333333334,0.015
13.96111111111111,0.025
13.963888888888889,0.03
13.966666666666667,0.04
13.969444444444445,0.04
13.972222222222221,0.03
13.975,0.03
13.977777777777778,0.02
13.980555555555556,0.015
13.983333333333333,0.02
13.98611111111111,0.02
13.988888888888889,0.025
13.991666666666667,0.045
13.994444444444444,0.05
13.997222222222222,0.04
14.0,0.045
14.002777777777778,0.035
14.005555555555556,0.015
14.008333333333333,0.025
14.011111111111111,0.045
14.01388888888889,0.045
14.016666666666667,0.025
14.019444444444444,0.015
14.022222222222222,0.0
14.025,0.0
14.027777777777779,0.0
14.030555555555555,-0.005
14.033333333333333,-0.005
14.036111111111111,-0.005
14.03888888888889,-0.035
14.041666666666666,-0.035
14.044444444444444,-0.05
14.047222222222222,-0.07
14.05,-0.115
14.052777777777777,-0.15
14.055555555555555,-0.18
14.058333333333334,-0.215
14.061111111111112,-0.24
14.063888888888888,-0.275
14.066666666666666,-0.295
14.069444444444445,-0.31
14.072222222222223,-0.32
14.075,-0.325
14.077777777777778,-0.32
14.080555555555556,-0.33
14.083333333333334,-0.335
14.08611111111111,-0.34
14.088888888888889,-0.355
14.091666666666667,-0.345
14.094444444444445,-0.345
14.097222222222221,-0.34
14.1,-0.34
14.102777777777778,-0.35
14.105555555555556,-0.365
14.108333333333333,-0.35
14.11111111111111,-0.345
14.113888888888889,-0.34
14.116666666666667,-0.335
14.119444444444444,-0.34
14.122222222222222,-0.355
14.125,-0.36
14.127777777777778,-0.345
14.130555555555556,-0.33
14.133333333333333,-0.33
14.136111111111111,-0.34
14.13888888888889,-0.345
14.141666666666667,-0.34
14.144444444444444,-0.335
14.147222222222222,-0.325
14.15,-0.33
14.152777777777779,-0.34
14.155555555555555,-0.33
14.158333333333333,-0.325
14.161111111111111,-0.305
14.16388888888889,-0.31
14.166666666666666,-0.32
14.169444444444444,-0.33
14.172222222222222,-0.315
14.175,-0.31
14.177777777777777,-0.3
14.180555555555555,-0.315
14.183333333333334,-0.33
14.186111111111112,-0.365
14.188888888888888,-0.395
14.191666666666666,-0.405
14.194444444444445,-0.385
14.197222222222223,-0.32
14.2,-0.215
14.202777777777778,-0.09
14.205555555555556,0.03
14.208333333333334,0.115
14.21111111111111,0.185
14.213888888888889,0.23
14.216666666666667,0.295
14.219444444444445,0.39
14.222222222222221,0.5
14.225,0.62
14.227777777777778,0.72
