time,amplitude
0.0,-1.0
0.002777777777777778,-1.0
0.005555555555555556,-1.0
0.008333333333333333,-1.0
0.011111111111111112,-1.0
0.013888888888888888,-1.0
0.016666666666666666,-1.0
0.019444444444444445,-0.985
0.022222222222222223,-0.97
0.025,-0.97
0.027777777777777776,-0.97
0.030555555555555555,-0.97
0.03333333333333333,-0.98
0.03611111111111111,-0.975
0.03888888888888889,-0.975
0.041666666666666664,-0.985
0.044444444444444446,-0.98
0.04722222222222222,-0.97
0.05,-0.975
0.05277777777777778,-0.955
0.05555555555555555,-0.945
0.058333333333333334,-0.95
0.06111111111111111,-0.965
0.06388888888888888,-0.95
0.06666666666666667,-0.955
0.06944444444444445,-0.96
0.07222222222222222,-0.96
0.075,-0.965
0.07777777777777778,-0.97
0.08055555555555556,-0.965
0.08333333333333333,-0.95
0.08611111111111111,-0.95
0.08888888888888889,-0.925
0.09166666666666666,-0.93
0.09444444444444444,-0.94
0.09722222222222222,-0.935
0.1,-0.94
0.10277777777777777,-0.95
0.10555555555555556,-0.965
0.10833333333333334,-0.96
0.1111111111111111,-0.95
0.11388888888888889,-0.955
0.11666666666666667,-0.94
0.11944444444444445,-0.945
0.12222222222222222,-0.925
0.125,-0.925
0.12777777777777777,-0.93
0.13055555555555556,-0.93
0.13333333333333333,-0.935
0.1361111111111111,-0.945
0.1388888888888889,-0.95
0.14166666666666666,-0.95
0.14444444444444443,-0.945
0.14722222222222223,-0.94
0.15,-0.935
0.1527777777777778,-0.92
0.15555555555555556,-0.92
0.15833333333333333,-0.92
0.16111111111111112,-0.915
0.1638888888888889,-0.915
0.16666666666666666,-0.92
0.16944444444444445,-0.92
0.17222222222222222,-0.93
0.175,-0.93
0.17777777777777778,-0.95
0.18055555555555555,-0.955
0.18333333333333332,-0.93
0.18611111111111112,-0.915
0.18888888888888888,-0.905
0.19166666666666668,-0.9
0.19444444444444445,-0.91
0.19722222222222222,-0.92
0.2,-0.925
0.20277777777777778,-0.925
0.20555555555555555,-0.925
0.20833333333333334,-0.92
0.2111111111111111,-0.93
0.21388888888888888,-0.935
0.21666666666666667,-0.92
0.21944444444444444,-0.905
0.2222222222222222,-0.905
0.225,-0.895
0.22777777777777777,-0.9
0.23055555555555557,-0.905
0.23333333333333334,-0.915
0.2361111111111111,-0.92
0.2388888888888889,-0.91
0.24166666666666667,-0.92
0.24444444444444444,-0.925
0.24722222222222223,-0.91
0.25,-0.915
0.25277777777777777,-0.9
0.25555555555555554,-0.895
0.25833333333333336,-0.9
0.2611111111111111,-0.9
0.2638888888888889,-0.905
0.26666666666666666,-0.91
0.26944444444444443,-0.91
0.2722222222222222,-0.92
0.275,-0.92
0.2777777777777778,-0.92
0.28055555555555556,-0.92
0.2833333333333333,-0.91
0.2861111111111111,-0.92
0.28888888888888886,-0.9
0.2916666666666667,-0.895
0.29444444444444445,-0.9
0.2972222222222222,-0.905
0.3,-0.915
0.30277777777777776,-0.91
0.3055555555555556,-0.92
0.30833333333333335,-0.925
0.3111111111111111,-0.935
0.3138888888888889,-0.91
0.31666666666666665,-0.905
0.3194444444444444,-0.905
0.32222222222222224,-0.895
0.325,-0.895
0.3277777777777778,-0.895
0.33055555555555555,-0.9
0.3333333333333333,-0.91
0.33611111111111114,-0.905
0.3388888888888889,-0.915
0.3416666666666667,-0.92
0.34444444444444444,-0.915
0.3472222222222222,-0.91
0.35,-0.92
0.3527777777777778,-0.9
0.35555555555555557,-0.89
0.35833333333333334,-0.895
0.3611111111111111,-0.895
0.3638888888888889,-0.895
0.36666666666666664,-0.905
0.36944444444444446,-0.91
0.37222222222222223,-0.915
0.375,-0.91
0.37777777777777777,-0.915
0.38055555555555554,-0.92
0.38333333333333336,-0.9
0.3861111111111111,-0.9
0.3888888888888889,-0.895
0.39166666666666666,-0.885
0.39444444444444443,-0.895
0.3972222222222222,-0.9
0.4,-0.9
0.4027777777777778,-0.905
0.40555555555555556,-0.915
0.4083333333333333,-0.92
0.4111111111111111,-0.92
0.41388888888888886,-0.91
0.4166666666666667,-0.905
0.41944444444444445,-0.9
0.4222222222222222,-0.895
0.425,-0.885
0.42777777777777776,-0.89
0.4305555555555556,-0.885
0.43333333333333335,-0.885
0.4361111111111111,-0.89
0.4388888888888889,-0.9
0.44166666666666665,-0.89
0.4444444444444444,-0.895
0.44722222222222224,-0.885
0.45,-0.87
0.4527777777777778,-0.88
0.45555555555555555,-0.865
0.4583333333333333,-0.87
0.46111111111111114,-0.87
0.4638888888888889,-0.87
0.4666666666666667,-0.865
0.46944444444444444,-0.86
0.4722222222222222,-0.85
0.475,-0.85
0.4777777777777778,-0.835
0.48055555555555557,-0.82
0.48333333333333334,-0.82
0.4861111111111111,-0.81
0.4888888888888889,-0.81
0.49166666666666664,-0.815
0.49444444444444446,-0.83
0.49722222222222223,-0.835
0.5,-0.85
0.5027777777777778,-0.865
0.5055555555555555,-0.865
0.5083333333333333,-0.87
0.5111111111111111,-0.87
0.5138888888888888,-0.865
0.5166666666666667,-0.87
0.5194444444444445,-0.86
0.5222222222222223,-0.845
0.525,-0.83
0.5277777777777778,-0.82
0.5305555555555556,-0.815
0.5333333333333333,-0.815
0.5361111111111111,-0.82
0.5388888888888889,-0.825
0.5416666666666666,-0.84
0.5444444444444444,-0.845
0.5472222222222223,-0.855
0.55,-0.875
0.5527777777777778,-0.88
0.5555555555555556,-0.88
0.5583333333333333,-0.895
0.5611111111111111,-0.91
0.5638888888888889,-0.92
0.5666666666666667,-0.93
0.5694444444444444,-0.935
0.5722222222222222,-0.925
0.575,-0.925
0.5777777777777777,-0.93
0.5805555555555556,-0.92
0.5833333333333334,-0.91
0.5861111111111111,-0.91
0.5888888888888889,-0.905
0.5916666666666667,-0.91
0.5944444444444444,-0.935
0.5972222222222222,-0.935
0.6,-0.935
0.6027777777777777,-0.915
0.6055555555555555,-0.85
0.6083333333333333,-0.75
0.6111111111111112,-0.655
0.6138888888888889,-0.57
0.6166666666666667,-0.5
0.6194444444444445,-0.465
0.6222222222222222,-0.445
0.625,-0.495
0.6277777777777778,-0.61
0.6305555555555555,-0.75
0.6333333333333333,-0.92
0.6361111111111111,-1.015
0.6388888888888888,-1.015
0.6416666666666667,-0.91
0.6444444444444445,-0.72
0.6472222222222223,-0.475
0.65,-0.21
0.6527777777777778,0.035
0.6555555555555556,0.26
0.6583333333333333,0.49
0.6611111111111111,0.69
0.6638888888888889,0.88
0.6666666666666666,1.025
0.6694444444444444,1.13
0.6722222222222223,1.19
0.675,1.195
0.6777777777777778,1.165
0.6805555555555556,1.085
0.6833333333333333,0.97
0.6861111111111111,0.815
0.6888888888888889,0.635
0.6916666666666667,0.425
0.6944444444444444,0.215
0.6972222222222222,0.0
0.7,-0.215
0.7027777777777777,-0.43
0.7055555555555556,-0.645
0.7083333333333334,-0.835
0.7111111111111111,-0.98
0.7138888888888889,-1.07
0.7166666666666667,-1.125
0.7194444444444444,-1.14
0.7222222222222222,-1.13
0.725,-1.12
0.7277777777777777,-1.095
0.7305555555555555,-1.08
0.7333333333333333,-1.085
0.7361111111111112,-1.07
0.7388888888888889,-1.07
0.7416666666666667,-1.06
0.7444444444444445,-1.045
0.7472222222222222,-1.035
0.75,-1.02
0.7527777777777778,-1.015
0.7555555555555555,-1.0
0.7583333333333333,-1.0
0.7611111111111111,-1.005
0.7638888888888888,-1.02
0.7666666666666667,-1.025
0.7694444444444445,-1.04
0.7722222222222223,-1.04
0.775,-1.05
0.7777777777777778,-1.045
0.7805555555555556,-1.04
0.7833333333333333,-1.03
0.7861111111111111,-1.025
0.7888888888888889,-1.015
0.7916666666666666,-1.01
0.7944444444444444,-1.025
0.7972222222222223,-1.025
0.8,-1.035
0.8027777777777778,-1.045
0.8055555555555556,-1.04
0.8083333333333333,-1.045
0.8111111111111111,-1.04
0.8138888888888889,-1.04
0.8166666666666667,-1.025
0.8194444444444444,-1.02
0.8222222222222222,-1.015
0.825,-1.02
0.8277777777777777,-1.02
0.8305555555555556,-1.035
0.8333333333333334,-1.045
0.8361111111111111,-1.05
0.8388888888888889,-1.06
0.8416666666666667,-1.06
0.8444444444444444,-1.06
0.8472222222222222,-1.055
0.85,-1.06
0.8527777777777777,-1.045
0.8555555555555555,-1.05
0.8583333333333333,-1.055
0.8611111111111112,-1.055
0.8638888888888889,-1.07
0.8666666666666667,-1.075
0.8694444444444445,-1.075
0.8722222222222222,-1.08
0.875,-1.09
0.8777777777777778,-1.09
0.8805555555555555,-1.085
0.8833333333333333,-1.09
0.8861111111111111,-1.08
0.8888888888888888,-1.085
0.8916666666666667,-1.08
0.8944444444444445,-1.085
0.8972222222222223,-1.09
0.9,-1.11
0.9027777777777778,-1.125
0.9055555555555556,-1.125
0.9083333333333333,-1.135
0.9111111111111111,-1.15
0.9138888888888889,-1.15
0.9166666666666666,-1.14
0.9194444444444444,-1.14
0.9222222222222223,-1.135
0.925,-1.155
0.9277777777777778,-1.17
0.9305555555555556,-1.175
0.9333333333333333,-1.195
0.9361111111111111,-1.19
0.9388888888888889,-1.185
0.9416666666666667,-1.2
0.9444444444444444,-1.2
0.9472222222222222,-1.195
0.95,-1.2
0.9527777777777777,-1.21
0.9555555555555556,-1.195
0.9583333333333334,-1.205
0.9611111111111111,-1.195
0.9638888888888889,-1.205
0.9666666666666667,-1.21
0.9694444444444444,-1.21
0.9722222222222222,-1.22
0.975,-1.21
0.9777777777777777,-1.21
0.9805555555555555,-1.205
0.9833333333333333,-1.18
0.9861111111111112,-1.18
0.9888888888888889,-1.165
0.9916666666666667,-1.16
0.9944444444444445,-1.16
0.9972222222222222,-1.155
1.0,-1.145
1.0027777777777778,-1.14
1.0055555555555555,-1.12
1.0083333333333333,-1.115
1.011111111111111,-1.105
1.0138888888888888,-1.09
1.0166666666666666,-1.07
1.0194444444444444,-1.05
1.0222222222222221,-1.02
1.025,-1.005
1.0277777777777777,-0.995
1.0305555555555554,-0.97
1.0333333333333334,-0.965
1.0361111111111112,-0.95
1.038888888888889,-0.935
1.0416666666666667,-0.935
1.0444444444444445,-0.92
1.0472222222222223,-0.9
1.05,-0.885
1.0527777777777778,-0.85
1.0555555555555556,-0.845
1.0583333333333333,-0.84
1.0611111111111111,-0.845
1.0638888888888889,-0.825
1.0666666666666667,-0.835
1.0694444444444444,-0.835
1.0722222222222222,-0.83
1.075,-0.83
1.0777777777777777,-0.82
1.0805555555555555,-0.82
1.0833333333333333,-0.82
1.086111111111111,-0.81
1.0888888888888888,-0.81
1.0916666666666666,-0.815
1.0944444444444446,-0.825
1.0972222222222223,-0.845
1.1,-0.86
1.1027777777777779,-0.875
1.1055555555555556,-0.885
1.1083333333333334,-0.9
1.1111111111111112,-0.905
1.113888888888889,-0.905
1.1166666666666667,-0.905
1.1194444444444445,-0.915
1.1222222222222222,-0.9
1.125,-0.92
1.1277777777777778,-0.925
1.1305555555555555,-0.94
1.1333333333333333,-0.94
1.136111111111111,-0.965
1.1388888888888888,-0.96
1.1416666666666666,-0.97
1.1444444444444444,-0.97
1.1472222222222221,-0.97
1.15,-0.96
1.1527777777777777,-0.96
1.1555555555555554,-0.96
1.1583333333333334,-0.97
1.1611111111111112,-0.97
1.163888888888889,-0.96
1.1666666666666667,-0.975
1.1694444444444445,-0.98
1.1722222222222223,-0.975
1.175,-0.99
1.1777777777777778,-0.98
1.1805555555555556,-0.97
1.1833333333333333,-0.965
1.1861111111111111,-0.955
1.1888888888888889,-0.95
1.1916666666666667,-0.95
1.1944444444444444,-0.955
1.1972222222222222,-0.955
1.2,-0.945
1.2027777777777777,-0.94
1.2055555555555555,-0.955
1.2083333333333333,-0.95
1.211111111111111,-0.935
1.2138888888888888,-0.935
1.2166666666666666,-0.93
1.2194444444444446,-0.925
1.2222222222222223,-0.915
1.225,-0.915
1.2277777777777779,-0.92
1.2305555555555556,-0.91
1.2333333333333334,-0.925
1.2361111111111112,-0.925
1.238888888888889,-0.93
1.2416666666666667,-0.93
1.2444444444444445,-0.93
1.2472222222222222,-0.92
1.25,-0.925
1.2527777777777778,-0.905
1.2555555555555555,-0.91
1.2583333333333333,-0.905
1.261111111111111,-0.9
1.2638888888888888,-0.895
1.2666666666666666,-0.91
1.2694444444444444,-0.91
1.2722222222222221,-0.905
1.275,-0.91
1.2777777777777777,-0.91
1.2805555555555554,-0.905
1.2833333333333334,-0.895
1.2861111111111112,-0.89
1.288888888888889,-0.875
1.2916666666666667,-0.885
1.2944444444444445,-0.885
1.2972222222222223,-0.895
1.3,-0.89
1.3027777777777778,-0.905
1.3055555555555556,-0.9
1.3083333333333333,-0.905
1.3111111111111111,-0.895
1.3138888888888889,-0.895
1.3166666666666667,-0.89
1.3194444444444444,-0.89
1.3222222222222222,-0.875
1.325,-0.87
1.3277777777777777,-0.88
1.3305555555555555,-0.88
1.3333333333333333,-0.88
1.336111111111111,-0.895
1.3388888888888888,-0.9
1.3416666666666666,-0.9
1.3444444444444446,-0.9
1.3472222222222223,-0.895
1.35,-0.885
1.3527777777777779,-0.875
1.3555555555555556,-0.86
1.3583333333333334,-0.86
1.3611111111111112,-0.86
1.363888888888889,-0.865
1.3666666666666667,-0.87
1.3694444444444445,-0.865
1.3722222222222222,-0.88
1.375,-0.87
1.3777777777777778,-0.875
1.3805555555555555,-0.865
1.3833333333333333,-0.86
1.386111111111111,-0.86
1.3888888888888888,-0.855
1.3916666666666666,-0.855
1.3944444444444444,-0.855
1.3972222222222221,-0.865
1.4,-0.865
1.4027777777777777,-0.865
1.4055555555555554,-0.88
1.4083333333333334,-0.87
1.4111111111111112,-0.865
1.413888888888889,-0.87
1.4166666666666667,-0.86
1.4194444444444445,-0.865
1.4222222222222223,-0.845
1.425,-0.845
1.4277777777777778,-0.845
1.4305555555555556,-0.845
1.4333333333333333,-0.86
1.4361111111111111,-0.86
1.4388888888888889,-0.865
1.4416666666666667,-0.875
1.4444444444444444,-0.875
1.4472222222222222,-0.865
1.45,-0.865
1.4527777777777777,-0.86
1.4555555555555555,-0.86
1.4583333333333333,-0.845
1.461111111111111,-0.84
1.4638888888888888,-0.85
1.4666666666666666,-0.86
1.4694444444444446,-0.86
1.4722222222222223,-0.875
1.475,-0.86
1.4777777777777779,-0.86
1.4805555555555556,-0.86
1.4833333333333334,-0.86
1.4861111111111112,-0.845
1.488888888888889,-0.84
1.4916666666666667,-0.84
1.4944444444444445,-0.85
1.4972222222222222,-0.845
1.5,-0.865
1.5027777777777778,-0.86
1.5055555555555555,-0.87
1.5083333333333333,-0.875
1.511111111111111,-0.88
1.5138888888888888,-0.885
1.5166666666666666,-0.86
1.5194444444444444,-0.855
1.5222222222222221,-0.845
1.525,-0.835
1.5277777777777777,-0.845
1.5305555555555554,-0.855
1.5333333333333334,-0.86
1.5361111111111112,-0.865
1.538888888888889,-0.865
1.5416666666666667,-0.87
1.5444444444444445,-0.86
1.5472222222222223,-0.865
1.55,-0.845
1.5527777777777778,-0.855
1.5555555555555556,-0.835
1.5583333333333333,-0.85
1.5611111111111111,-0.86
1.5638888888888889,-0.84
1.5666666666666667,-0.855
1.5694444444444444,-0.855
1.5722222222222222,-0.86
1.575,-0.855
1.5777777777777777,-0.86
1.5805555555555555,-0.855
1.5833333333333333,-0.845
1.586111111111111,-0.84
1.5888888888888888,-0.84
1.5916666666666666,-0.835
1.5944444444444446,-0.845
1.5972222222222223,-0.845
1.6,-0.84
1.6027777777777779,-0.86
1.6055555555555556,-0.855
1.6083333333333334,-0.855
1.6111111111111112,-0.86
1.613888888888889,-0.86
1.6166666666666667,-0.855
1.6194444444444445,-0.86
1.6222222222222222,-0.85
1.625,-0.845
1.6277777777777778,-0.84
1.6305555555555555,-0.86
1.6333333333333333,-0.86
1.636111111111111,-0.87
1.6388888888888888,-0.88
1.6416666666666666,-0.855
1.6444444444444444,-0.865
1.6472222222222221,-0.85
1.65,-0.85
1.6527777777777777,-0.845
1.6555555555555554,-0.84
1.6583333333333334,-0.835
1.6611111111111112,-0.835
1.663888888888889,-0.835
1.6666666666666667,-0.855
1.6694444444444445,-0.85
1.6722222222222223,-0.855
1.675,-0.855
1.6777777777777778,-0.845
1.6805555555555556,-0.85
1.6833333333333333,-0.835
1.6861111111111111,-0.84
1.6888888888888889,-0.83
1.6916666666666667,-0.835
1.6944444444444444,-0.825
1.6972222222222222,-0.82
1.7,-0.825
1.7027777777777777,-0.835
1.7055555555555555,-0.835
1.7083333333333333,-0.83
1.711111111111111,-0.825
1.7138888888888888,-0.82
1.7166666666666666,-0.83
1.7194444444444446,-0.825
1.7222222222222223,-0.82
1.725,-0.805
1.7277777777777779,-0.795
1.7305555555555556,-0.795
1.7333333333333334,-0.79
1.7361111111111112,-0.79
1.738888888888889,-0.795
1.7416666666666667,-0.79
1.7444444444444445,-0.78
1.7472222222222222,-0.78
1.75,-0.785
1.7527777777777778,-0.79
1.7555555555555555,-0.79
1.7583333333333333,-0.8
1.761111111111111,-0.805
1.7638888888888888,-0.82
1.7666666666666666,-0.82
1.7694444444444444,-0.815
1.7722222222222221,-0.82
1.775,-0.815
1.7777777777777777,-0.795
1.7805555555555554,-0.775
1.7833333333333334,-0.77
1.7861111111111112,-0.755
1.788888888888889,-0.75
1.7916666666666667,-0.755
1.7944444444444445,-0.775
1.7972222222222223,-0.785
1.8,-0.785
1.8027777777777778,-0.815
1.8055555555555556,-0.845
1.8083333333333333,-0.855
1.8111111111111111,-0.87
1.8138888888888889,-0.865
1.8166666666666667,-0.86
1.8194444444444444,-0.865
1.8222222222222222,-0.85
1.825,-0.845
1.8277777777777777,-0.85
1.8305555555555555,-0.845
1.8333333333333333,-0.86
1.836111111111111,-0.86
1.8388888888888888,-0.865
1.8416666666666666,-0.865
1.8444444444444446,-0.865
1.8472222222222223,-0.875
1.85,-0.875
1.8527777777777779,-0.875
1.8555555555555556,-0.84
1.8583333333333334,-0.8
1.8611111111111112,-0.725
1.863888888888889,-0.64
1.8666666666666667,-0.565
1.8694444444444445,-0.495
1.8722222222222222,-0.46
1.875,-0.475
1.8777777777777778,-0.51
1.8805555555555555,-0.61
1.8833333333333333,-0.74
1.886111111111111,-0.85
1.8888888888888888,-0.905
1.8916666666666666,-0.845
1.8944444444444444,-0.69
1.8972222222222221,-0.455
1.9,-0.205
1.9027777777777777,0.075
1.9055555555555554,0.345
1.9083333333333334,0.595
1.9111111111111112,0.84
1.913888888888889,1.055
1.9166666666666667,1.23
1.9194444444444445,1.345
1.9222222222222223,1.4
1.925,1.39
1.9277777777777778,1.295
1.9305555555555556,1.18
1.9333333333333333,1.015
1.9361111111111111,0.805
1.9388888888888889,0.565
1.9416666666666667,0.335
1.9444444444444444,0.11
1.9472222222222222,-0.125
1.95,-0.345
1.9527777777777777,-0.58
1.9555555555555555,-0.775
1.9583333333333333,-0.93
1.961111111111111,-1.045
1.9638888888888888,-1.11
1.9666666666666666,-1.145
1.9694444444444446,-1.135
1.9722222222222223,-1.12
1.975,-1.1
1.9777777777777779,-1.075
1.9805555555555556,-1.05
1.9833333333333334,-1.02
1.9861111111111112,-1.02
1.988888888888889,-0.99
1.9916666666666667,-0.965
1.9944444444444445,-0.97
1.9972222222222222,-0.98
2.0,-0.98
2.0027777777777778,-0.995
2.0055555555555555,-1.01
2.0083333333333333,-1.015
2.011111111111111,-1.005
2.013888888888889,-0.995
2.0166666666666666,-0.98
2.0194444444444444,-0.98
2.022222222222222,-0.975
2.025,-0.98
2.0277777777777777,-0.98
2.0305555555555554,-0.99
2.033333333333333,-0.995
2.036111111111111,-1.005
2.0388888888888888,-1.005
2.0416666666666665,-1.015
2.0444444444444443,-1.01
2.047222222222222,-1.0
2.05,-0.995
2.0527777777777776,-0.985
2.0555555555555554,-0.98
2.058333333333333,-0.98
2.061111111111111,-0.98
2.063888888888889,-0.995
2.066666666666667,-1.005
2.0694444444444446,-1.01
2.0722222222222224,-1.035
2.075,-1.03
2.077777777777778,-1.03
2.0805555555555557,-1.025
2.0833333333333335,-1.015
2.0861111111111112,-1.005
2.088888888888889,-1.0
2.091666666666667,-1.0
2.0944444444444446,-1.005
2.0972222222222223,-1.025
2.1,-1.045
2.102777777777778,-1.055
2.1055555555555556,-1.055
2.1083333333333334,-1.065
2.111111111111111,-1.075
2.113888888888889,-1.08
2.1166666666666667,-1.065
2.1194444444444445,-1.075
2.1222222222222222,-1.06
2.125,-1.08
2.1277777777777778,-1.075
2.1305555555555555,-1.08
2.1333333333333333,-1.09
2.136111111111111,-1.105
2.138888888888889,-1.11
2.1416666666666666,-1.12
2.1444444444444444,-1.13
2.147222222222222,-1.13
2.15,-1.12
2.1527777777777777,-1.12
2.1555555555555554,-1.11
2.158333333333333,-1.12
2.161111111111111,-1.12
2.1638888888888888,-1.135
2.1666666666666665,-1.135
2.1694444444444443,-1.16
2.172222222222222,-1.16
2.175,-1.165
2.1777777777777776,-1.17
2.1805555555555554,-1.165
2.183333333333333,-1.16
2.186111111111111,-1.15
2.188888888888889,-1.135
2.191666666666667,-1.145
2.1944444444444446,-1.145
2.1972222222222224,-1.14
2.2,-1.145
2.202777777777778,-1.145
2.2055555555555557,-1.14
2.2083333333333335,-1.14
2.2111111111111112,-1.11
2.213888888888889,-1.1
2.216666666666667,-1.07
2.2194444444444446,-1.06
2.2222222222222223,-1.035
2.225,-1.015
2.227777777777778,-1.01
2.2305555555555556,-1.005
2.2333333333333334,-0.99
2.236111111111111,-0.985
2.238888888888889,-0.97
2.2416666666666667,-0.955
2.2444444444444445,-0.94
2.2472222222222222,-0.925
2.25,-0.89
2.2527777777777778,-0.875
2.2555555555555555,-0.86
2.2583333333333333,-0.845
2.261111111111111,-0.825
2.263888888888889,-0.82
2.2666666666666666,-0.815
2.2694444444444444,-0.8
2.272222222222222,-0.81
2.275,-0.805
2.2777777777777777,-0.8
2.2805555555555554,-0.795
2.283333333333333,-0.77
2.286111111111111,-0.775
2.2888888888888888,-0.765
2.2916666666666665,-0.77
2.2944444444444443,-0.77
2.297222222222222,-0.79
2.3,-0.795
2.3027777777777776,-0.815
2.3055555555555554,-0.83
2.308333333333333,-0.83
2.311111111111111,-0.85
2.313888888888889,-0.87
2.316666666666667,-0.875
2.3194444444444446,-0.87
2.3222222222222224,-0.87
2.325,-0.885
2.327777777777778,-0.9
2.3305555555555557,-0.91
2.3333333333333335,-0.93
2.3361111111111112,-0.93
2.338888888888889,-0.97
2.341666666666667,-0.985
2.3444444444444446,-0.96
2.3472222222222223,-0.975
2.35,-0.97
2.352777777777778,-0.965
2.3555555555555556,-0.97
2.3583333333333334,-0.965
2.361111111111111,-0.975
2.363888888888889,-0.975
2.3666666666666667,-0.995
2.3694444444444445,-1.0
2.3722222222222222,-1.0
2.375,-1.005
2.3777777777777778,-1.005
2.3805555555555555,-1.0
2.3833333333333333,-0.995
2.386111111111111,-0.975
2.388888888888889,-0.98
2.3916666666666666,-0.975
2.3944444444444444,-0.98
2.397222222222222,-0.97
2.4,-0.985
2.4027777777777777,-0.985
2.4055555555555554,-0.98
2.408333333333333,-0.98
2.411111111111111,-0.97
2.4138888888888888,-0.955
2.4166666666666665,-0.945
2.4194444444444443,-0.93
2.422222222222222,-0.92
2.425,-0.915
2.4277777777777776,-0.925
2.4305555555555554,-0.925
2.433333333333333,-0.93
2.436111111111111,-0.92
2.438888888888889,-0.935
2.441666666666667,-0.94
2.4444444444444446,-0.93
2.4472222222222224,-0.925
2.45,-0.91
2.452777777777778,-0.905
2.4555555555555557,-0.9
2.4583333333333335,-0.9
2.4611111111111112,-0.905
2.463888888888889,-0.905
2.466666666666667,-0.91
2.4694444444444446,-0.905
2.4722222222222223,-0.91
2.475,-0.915
2.477777777777778,-0.92
2.4805555555555556,-0.9
2.4833333333333334,-0.885
2.486111111111111,-0.88
2.488888888888889,-0.87
2.4916666666666667,-0.875
2.4944444444444445,-0.87
2.4972222222222222,-0.88
2.5,-0.89
2.5027777777777778,-0.9
2.5055555555555555,-0.91
2.5083333333333333,-0.9
2.511111111111111,-0.895
2.513888888888889,-0.88
2.5166666666666666,-0.88
2.5194444444444444,-0.875
2.522222222222222,-0.87
2.525,-0.865
2.5277777777777777,-0.87
2.5305555555555554,-0.87
2.533333333333333,-0.87
2.536111111111111,-0.88
2.5388888888888888,-0.885
2.5416666666666665,-0.88
2.5444444444444443,-0.88
2.547222222222222,-0.88
2.55,-0.87
2.5527777777777776,-0.86
2.5555555555555554,-0.855
2.558333333333333,-0.855
2.561111111111111,-0.855
2.563888888888889,-0.85
2.566666666666667,-0.865
2.5694444444444446,-0.87
2.5722222222222224,-0.875
2.575,-0.87
2.577777777777778,-0.865
2.5805555555555557,-0.865
2.5833333333333335,-0.86
2.5861111111111112,-0.855
2.588888888888889,-0.84
2.591666666666667,-0.84
2.5944444444444446,-0.84
2.5972222222222223,-0.845
2.6,-0.85
2.602777777777778,-0.865
2.6055555555555556,-0.86
2.6083333333333334,-0.87
2.611111111111111,-0.87
2.613888888888889,-0.855
2.6166666666666667,-0.855
2.6194444444444445,-0.86
2.6222222222222222,-0.845
2.625,-0.84
2.6277777777777778,-0.845
2.6305555555555555,-0.835
2.6333333333333333,-0.85
2.636111111111111,-0.855
2.638888888888889,-0.87
2.6416666666666666,-0.875
2.6444444444444444,-0.875
2.647222222222222,-0.86
2.65,-0.865
2.6527777777777777,-0.85
2.6555555555555554,-0.84
2.658333333333333,-0.84
2.661111111111111,-0.84
2.6638888888888888,-0.85
2.6666666666666665,-0.84
2.6694444444444443,-0.86
2.672222222222222,-0.865
2.675,-0.865
2.6777777777777776,-0.865
2.6805555555555554,-0.85
2.683333333333333,-0.845
2.686111111111111,-0.84
2.688888888888889,-0.825
2.691666666666667,-0.82
2.6944444444444446,-0.82
2.6972222222222224,-0.825
2.7,-0.84
2.702777777777778,-0.85
2.7055555555555557,-0.845
2.7083333333333335,-0.855
2.7111111111111112,-0.865
2.713888888888889,-0.865
2.716666666666667,-0.84
2.7194444444444446,-0.84
2.7222222222222223,-0.825
2.725,-0.82
2.727777777777778,-0.825
2.7305555555555556,-0.83
2.7333333333333334,-0.83
2.736111111111111,-0.835
2.738888888888889,-0.84
2.7416666666666667,-0.845
2.7444444444444445,-0.845
2.7472222222222222,-0.85
2.75,-0.835
2.7527777777777778,-0.84
2.7555555555555555,-0.835
2.7583333333333333,-0.835
2.761111111111111,-0.82
2.763888888888889,-0.825
2.7666666666666666,-0.835
2.7694444444444444,-0.835
2.772222222222222,-0.855
2.775,-0.845
2.7777777777777777,-0.845
2.7805555555555554,-0.84
2.783333333333333,-0.825
2.786111111111111,-0.82
2.7888888888888888,-0.825
2.7916666666666665,-0.815
2.7944444444444443,-0.825
2.797222222222222,-0.825
2.8,-0.835
2.8027777777777776,-0.84
2.8055555555555554,-0.835
2.808333333333333,-0.835
2.811111111111111,-0.835
2.813888888888889,-0.84
2.816666666666667,-0.835
2.8194444444444446,-0.83
2.8222222222222224,-0.815
2.825,-0.81
2.827777777777778,-0.805
2.8305555555555557,-0.815
2.8333333333333335,-0.83
2.8361111111111112,-0.84
2.838888888888889,-0.83
2.841666666666667,-0.83
2.8444444444444446,-0.83
2.8472222222222223,-0.82
2.85,-0.82
2.852777777777778,-0.805
2.8555555555555556,-0.8
2.8583333333333334,-0.81
2.861111111111111,-0.815
2.863888888888889,-0.81
2.8666666666666667,-0.83
2.8694444444444445,-0.825
2.8722222222222222,-0.84
2.875,-0.84
2.8777777777777778,-0.835
2.8805555555555555,-0.825
2.8833333333333333,-0.81
2.886111111111111,-0.795
2.888888888888889,-0.79
2.8916666666666666,-0.785
2.8944444444444444,-0.8
2.897222222222222,-0.805
2.9,-0.815
2.9027777777777777,-0.82
2.9055555555555554,-0.815
2.908333333333333,-0.815
2.911111111111111,-0.83
2.9138888888888888,-0.81
2.9166666666666665,-0.79
2.9194444444444443,-0.755
2.922222222222222,-0.74
2.925,-0.73
2.9277777777777776,-0.73
2.9305555555555554,-0.735
2.933333333333333,-0.735
2.936111111111111,-0.75
2.938888888888889,-0.75
2.941666666666667,-0.75
2.9444444444444446,-0.77
2.9472222222222224,-0.78
2.95,-0.78
2.952777777777778,-0.77
2.9555555555555557,-0.765
2.9583333333333335,-0.77
2.9611111111111112,-0.77
2.963888888888889,-0.765
2.966666666666667,-0.775
2.9694444444444446,-0.775
2.9722222222222223,-0.765
2.975,-0.75
2.977777777777778,-0.75
2.9805555555555556,-0.735
2.9833333333333334,-0.735
2.986111111111111,-0.735
2.988888888888889,-0.75
2.9916666666666667,-0.765
2.9944444444444445,-0.775
2.9972222222222222,-0.8
3.0,-0.825
3.0027777777777778,-0.835
3.0055555555555555,-0.845
3.0083333333333333,-0.84
3.011111111111111,-0.835
3.013888888888889,-0.83
3.0166666666666666,-0.825
3.0194444444444444,-0.81
3.022222222222222,-0.805
3.025,-0.82
3.0277777777777777,-0.825
3.0305555555555554,-0.83
3.033333333333333,-0.845
3.036111111111111,-0.86
3.0388888888888888,-0.87
3.0416666666666665,-0.835
3.0444444444444443,-0.755
3.047222222222222,-0.66
3.05,-0.55
3.0527777777777776,-0.46
3.0555555555555554,-0.39
3.058333333333333,-0.375
3.061111111111111,-0.41
3.063888888888889,-0.515
3.066666666666667,-0.685
3.0694444444444446,-0.84
3.0722222222222224,-0.925
3.075,-0.915
3.077777777777778,-0.755
3.0805555555555557,-0.515
3.0833333333333335,-0.22
3.0861111111111112,0.06
3.088888888888889,0.335
3.091666666666667,0.57
3.0944444444444446,0.78
3.0972222222222223,0.955
3.1,1.09
3.102777777777778,1.16
3.1055555555555556,1.185
3.1083333333333334,1.16
3.111111111111111,1.105
3.113888888888889,1.02
3.1166666666666667,0.91
3.1194444444444445,0.74
3.1222222222222222,0.555
3.125,0.34
3.1277777777777778,0.145
3.1305555555555555,-0.065
3.1333333333333333,-0.295
3.136111111111111,-0.515
3.138888888888889,-0.695
3.1416666666666666,-0.875
3.1444444444444444,-0.965
3.147222222222222,-1.025
3.15,-1.045
3.1527777777777777,-1.035
3.1555555555555554,-1.025
3.158333333333333,-1.0
3.161111111111111,-0.975
3.1638888888888888,-0.97
3.1666666666666665,-0.965
3.1694444444444443,-0.95
3.172222222222222,-0.935
3.175,-0.925
3.1777777777777776,-0.93
3.1805555555555554,-0.92
3.183333333333333,-0.915
3.186111111111111,-0.91
3.188888888888889,-0.92
3.191666666666667,-0.915
3.1944444444444446,-0.92
3.1972222222222224,-0.925
3.2,-0.935
3.202777777777778,-0.94
3.2055555555555557,-0.94
3.2083333333333335,-0.945
3.2111111111111112,-0.94
3.213888888888889,-0.935
3.216666666666667,-0.935
3.2194444444444446,-0.925
3.2222222222222223,-0.915
3.225,-0.925
3.227777777777778,-0.94
3.2305555555555556,-0.93
3.2333333333333334,-0.93
3.236111111111111,-0.94
3.238888888888889,-0.94
3.2416666666666667,-0.95
3.2444444444444445,-0.945
3.2472222222222222,-0.945
3.25,-0.955
3.2527777777777778,-0.94
3.2555555555555555,-0.945
3.2583333333333333,-0.945
3.261111111111111,-0.94
3.263888888888889,-0.96
3.2666666666666666,-0.955
3.2694444444444444,-0.97
3.272222222222222,-0.975
3.275,-0.985
3.2777777777777777,-0.98
3.2805555555555554,-0.97
3.283333333333333,-0.975
3.286111111111111,-0.97
3.2888888888888888,-0.965
3.2916666666666665,-0.97
3.2944444444444443,-0.995
3.297222222222222,-1.0
3.3,-1.005
3.3027777777777776,-1.01
3.3055555555555554,-1.015
3.308333333333333,-1.02
3.311111111111111,-1.02
3.313888888888889,-1.02
3.316666666666667,-1.015
3.3194444444444446,-1.025
3.3222222222222224,-1.025
3.325,-1.035
3.327777777777778,-1.04
3.3305555555555557,-1.02
3.3333333333333335,-1.05
3.3361111111111112,-1.055
3.338888888888889,-1.06
3.341666666666667,-1.075
3.3444444444444446,-1.075
3.3472222222222223,-1.07
3.35,-1.07
3.352777777777778,-1.06
3.3555555555555556,-1.065
3.3583333333333334,-1.065
3.361111111111111,-1.075
3.363888888888889,-1.09
3.3666666666666667,-1.105
3.3694444444444445,-1.125
3.3722222222222222,-1.12
3.375,-1.125
3.3777777777777778,-1.125
3.3805555555555555,-1.12
3.3833333333333333,-1.115
3.386111111111111,-1.11
3.388888888888889,-1.11
3.3916666666666666,-1.11
3.3944444444444444,-1.125
3.397222222222222,-1.13
3.4,-1.125
3.4027777777777777,-1.115
3.4055555555555554,-1.115
3.408333333333333,-1.11
3.411111111111111,-1.09
3.4138888888888888,-1.08
3.4166666666666665,-1.055
3.4194444444444443,-1.05
3.422222222222222,-1.035
3.425,-1.03
3.4277777777777776,-1.01
3.4305555555555554,-1.0
3.433333333333333,-0.985
3.436111111111111,-0.98
3.438888888888889,-0.965
3.441666666666667,-0.95
3.4444444444444446,-0.935
3.4472222222222224,-0.91
3.45,-0.885
3.452777777777778,-0.865
3.4555555555555557,-0.845
3.4583333333333335,-0.83
3.4611111111111112,-0.815
3.463888888888889,-0.8
3.466666666666667,-0.8
3.4694444444444446,-0.785
3.4722222222222223,-0.785
3.475,-0.785
3.477777777777778,-0.765
3.4805555555555556,-0.75
3.4833333333333334,-0.735
3.486111111111111,-0.725
3.488888888888889,-0.72
3.4916666666666667,-0.72
3.4944444444444445,-0.72
3.4972222222222222,-0.74
3.5,-0.755
3.5027777777777778,-0.75
3.5055555555555555,-0.75
3.5083333333333333,-0.745
3.511111111111111,-0.75
3.513888888888889,-0.765
3.5166666666666666,-0.755
3.5194444444444444,-0.76
3.522222222222222,-0.765
3.525,-0.775
3.5277777777777777,-0.785
3.5305555555555554,-0.81
3.533333333333333,-0.82
3.536111111111111,-0.83
3.5388888888888888,-0.835
3.5416666666666665,-0.84
3.5444444444444443,-0.855
3.547222222222222,-0.845
3.55,-0.85
3.5527777777777776,-0.85
3.5555555555555554,-0.845
3.558333333333333,-0.855
3.561111111111111,-0.85
3.563888888888889,-0.86
3.566666666666667,-0.875
3.5694444444444446,-0.87
3.5722222222222224,-0.875
3.575,-0.875
3.577777777777778,-0.88
3.5805555555555557,-0.875
3.5833333333333335,-0.86
3.5861111111111112,-0.855
3.588888888888889,-0.85
3.591666666666667,-0.84
3.5944444444444446,-0.845
3.5972222222222223,-0.85
3.6,-0.85
3.602777777777778,-0.855
3.6055555555555556,-0.85
3.6083333333333334,-0.855
3.611111111111111,-0.845
3.613888888888889,-0.835
3.6166666666666667,-0.83
3.6194444444444445,-0.83
3.6222222222222222,-0.81
3.625,-0.805
3.6277777777777778,-0.815
3.6305555555555555,-0.835
3.6333333333333333,-0.845
3.636111111111111,-0.835
3.638888888888889,-0.84
3.6416666666666666,-0.83
3.6444444444444444,-0.81
3.647222222222222,-0.81
3.65,-0.805
3.6527777777777777,-0.78
3.6555555555555554,-0.79
3.658333333333333,-0.78
3.661111111111111,-0.795
3.6638888888888888,-0.795
3.6666666666666665,-0.785
3.6694444444444443,-0.795
3.672222222222222,-0.81
3.675,-0.8
3.6777777777777776,-0.79
3.6805555555555554,-0.795
3.683333333333333,-0.795
3.686111111111111,-0.775
3.688888888888889,-0.765
3.691666666666667,-0.765
3.6944444444444446,-0.76
3.6972222222222224,-0.765
3.7,-0.76
3.702777777777778,-0.77
3.7055555555555557,-0.78
3.7083333333333335,-0.775
3.7111111111111112,-0.76
3.713888888888889,-0.765
3.716666666666667,-0.755
3.7194444444444446,-0.755
3.7222222222222223,-0.74
3.725,-0.745
3.727777777777778,-0.745
3.7305555555555556,-0.75
3.7333333333333334,-0.76
3.736111111111111,-0.765
3.738888888888889,-0.77
3.7416666666666667,-0.755
3.7444444444444445,-0.755
3.7472222222222222,-0.75
3.75,-0.745
3.7527777777777778,-0.74
3.7555555555555555,-0.745
3.7583333333333333,-0.75
3.761111111111111,-0.745
3.763888888888889,-0.75
3.7666666666666666,-0.74
3.7694444444444444,-0.735
3.772222222222222,-0.745
3.775,-0.75
3.7777777777777777,-0.755
3.7805555555555554,-0.745
3.783333333333333,-0.73
3.786111111111111,-0.73
3.7888888888888888,-0.72
3.7916666666666665,-0.725
3.7944444444444443,-0.715
3.797222222222222,-0.725
3.8,-0.73
3.8027777777777776,-0.735
3.8055555555555554,-0.73
3.808333333333333,-0.73
3.811111111111111,-0.735
3.813888888888889,-0.715
3.816666666666667,-0.705
3.8194444444444446,-0.705
3.8222222222222224,-0.695
3.825,-0.695
3.827777777777778,-0.69
3.8305555555555557,-0.7
3.8333333333333335,-0.705
3.8361111111111112,-0.705
3.838888888888889,-0.71
3.841666666666667,-0.72
3.8444444444444446,-0.72
3.8472222222222223,-0.72
3.85,-0.69
3.852777777777778,-0.68
3.8555555555555556,-0.685
3.8583333333333334,-0.685
3.861111111111111,-0.685
3.863888888888889,-0.69
3.8666666666666667,-0.69
3.8694444444444445,-0.695
3.8722222222222222,-0.705
3.875,-0.7
3.8777777777777778,-0.695
3.8805555555555555,-0.68
3.8833333333333333,-0.67
3.886111111111111,-0.66
3.888888888888889,-0.67
3.8916666666666666,-0.655
3.8944444444444444,-0.655
3.897222222222222,-0.68
3.9,-0.675
3.9027777777777777,-0.685
3.9055555555555554,-0.68
3.908333333333333,-0.69
3.911111111111111,-0.68
3.9138888888888888,-0.68
3.9166666666666665,-0.67
3.9194444444444443,-0.655
3.922222222222222,-0.66
3.925,-0.67
3.9277777777777776,-0.665
3.9305555555555554,-0.675
3.933333333333333,-0.68
3.936111111111111,-0.68
3.938888888888889,-0.67
3.941666666666667,-0.665
3.9444444444444446,-0.665
3.9472222222222224,-0.65
3.95,-0.645
3.952777777777778,-0.63
3.9555555555555557,-0.63
3.9583333333333335,-0.635
3.9611111111111112,-0.645
3.963888888888889,-0.655
3.966666666666667,-0.655
3.9694444444444446,-0.66
3.9722222222222223,-0.665
3.975,-0.65
3.977777777777778,-0.65
3.9805555555555556,-0.64
3.9833333333333334,-0.65
3.986111111111111,-0.635
3.988888888888889,-0.62
3.9916666666666667,-0.63
3.9944444444444445,-0.635
3.9972222222222222,-0.65
4.0,-0.655
4.002777777777778,-0.655
4.0055555555555555,-0.655
4.008333333333334,-0.65
4.011111111111111,-0.64
4.013888888888889,-0.63
4.016666666666667,-0.625
4.019444444444445,-0.625
4.022222222222222,-0.63
4.025,-0.63
4.027777777777778,-0.615
4.030555555555556,-0.63
4.033333333333333,-0.63
4.036111111111111,-0.63
4.038888888888889,-0.64
4.041666666666667,-0.645
4.044444444444444,-0.62
4.0472222222222225,-0.62
4.05,-0.595
4.052777777777778,-0.605
4.055555555555555,-0.59
4.058333333333334,-0.6
4.061111111111111,-0.595
4.063888888888889,-0.61
4.066666666666666,-0.625
4.069444444444445,-0.625
4.072222222222222,-0.61
4.075,-0.605
4.0777777777777775,-0.605
4.080555555555556,-0.595
4.083333333333333,-0.585
4.086111111111111,-0.575
4.088888888888889,-0.555
4.091666666666667,-0.56
4.094444444444444,-0.555
4.097222222222222,-0.56
4.1,-0.565
4.102777777777778,-0.58
4.105555555555555,-0.58
4.108333333333333,-0.575
4.111111111111111,-0.565
4.113888888888889,-0.56
4.116666666666666,-0.53
4.1194444444444445,-0.505
4.122222222222222,-0.49
4.125,-0.495
4.127777777777778,-0.485
4.1305555555555555,-0.5
4.133333333333334,-0.51
4.136111111111111,-0.52
4.138888888888889,-0.535
4.141666666666667,-0.555
4.144444444444445,-0.545
4.147222222222222,-0.535
4.15,-0.535
4.152777777777778,-0.525
4.155555555555556,-0.525
4.158333333333333,-0.52
4.161111111111111,-0.535
4.163888888888889,-0.535
4.166666666666667,-0.525
4.169444444444444,-0.51
4.1722222222222225,-0.485
4.175,-0.49
4.177777777777778,-0.48
4.180555555555555,-0.48
4.183333333333334,-0.48
4.186111111111111,-0.485
4.188888888888889,-0.505
4.191666666666666,-0.53
4.194444444444445,-0.54
4.197222222222222,-0.565
4.2,-0.575
4.2027777777777775,-0.595
4.205555555555556,-0.595
4.208333333333333,-0.595
4.211111111111111,-0.585
4.213888888888889,-0.58
4.216666666666667,-0.57
4.219444444444444,-0.56
4.222222222222222,-0.555
4.225,-0.555
4.227777777777778,-0.565
4.230555555555555,-0.57
4.233333333333333,-0.585
4.236111111111111,-0.61
4.238888888888889,-0.6
4.241666666666666,-0.57
4.2444444444444445,-0.515
4.247222222222222,-0.44
4.25,-0.35
4.252777777777778,-0.26
4.2555555555555555,-0.185
4.258333333333334,-0.165
4.261111111111111,-0.165
4.263888888888889,-0.23
4.266666666666667,-0.325
4.269444444444445,-0.46
4.272222222222222,-0.56
4.275,-0.57
4.277777777777778,-0.47
4.280555555555556,-0.275
4.283333333333333,-0.02
4.286111111111111,0.26
4.288888888888889,0.52
4.291666666666667,0.76
4.294444444444444,0.98
4.2972222222222225,1.17
4.3,1.345
4.302777777777778,1.475
4.305555555555555,1.555
4.308333333333334,1.6
4.311111111111111,1.615
4.313888888888889,1.55
4.316666666666666,1.48
4.319444444444445,1.375
4.322222222222222,1.21
4.325,0.995
4.3277777777777775,0.795
4.330555555555556,0.595
4.333333333333333,0.4
4.336111111111111,0.21
4.338888888888889,0.0
4.341666666666667,-0.19
4.344444444444444,-0.38
4.347222222222222,-0.55
4.35,-0.675
4.352777777777778,-0.76
4.355555555555555,-0.8
4.358333333333333,-0.81
4.361111111111111,-0.815
4.363888888888889,-0.8
4.366666666666666,-0.78
4.3694444444444445,-0.765
4.372222222222222,-0.755
4.375,-0.74
4.377777777777778,-0.72
4.3805555555555555,-0.705
4.383333333333334,-0.675
4.386111111111111,-0.67
4.388888888888889,-0.655
4.391666666666667,-0.66
4.394444444444445,-0.665
4.397222222222222,-0.67
4.4,-0.68
4.402777777777778,-0.695
4.405555555555556,-0.705
4.408333333333333,-0.705
4.411111111111111,-0.705
4.413888888888889,-0.695
4.416666666666667,-0.67
4.419444444444444,-0.665
4.4222222222222225,-0.66
4.425,-0.665
4.427777777777778,-0.68
4.430555555555555,-0.69
4.433333333333334,-0.685
4.436111111111111,-0.695
4.438888888888889,-0.7
4.441666666666666,-0.7
4.444444444444445,-0.7
4.447222222222222,-0.695
4.45,-0.69
4.4527777777777775,-0.69
4.455555555555556,-0.675
4.458333333333333,-0.68
4.461111111111111,-0.69
4.463888888888889,-0.69
4.466666666666667,-0.7
4.469444444444444,-0.705
4.472222222222222,-0.715
4.475,-0.71
4.477777777777778,-0.715
4.480555555555555,-0.7
4.483333333333333,-0.695
4.486111111111111,-0.7
4.488888888888889,-0.69
4.491666666666666,-0.69
4.4944444444444445,-0.705
4.497222222222222,-0.71
4.5,-0.72
4.502777777777778,-0.73
4.5055555555555555,-0.745
4.508333333333334,-0.745
4.511111111111111,-0.745
4.513888888888889,-0.73
4.516666666666667,-0.74
4.519444444444445,-0.745
4.522222222222222,-0.72
4.525,-0.725
4.527777777777778,-0.75
4.530555555555556,-0.75
4.533333333333333,-0.755
4.536111111111111,-0.765
4.538888888888889,-0.77
4.541666666666667,-0.77
4.544444444444444,-0.78
4.5472222222222225,-0.775
4.55,-0.785
4.552777777777778,-0.775
4.555555555555555,-0.775
4.558333333333334,-0.78
4.561111111111111,-0.795
4.563888888888889,-0.805
4.566666666666666,-0.82
4.569444444444445,-0.825
4.572222222222222,-0.82
4.575,-0.825
4.5777777777777775,-0.835
4.580555555555556,-0.825
4.583333333333333,-0.815
4.586111111111111,-0.82
4.588888888888889,-0.815
4.591666666666667,-0.825
4.594444444444444,-0.84
4.597222222222222,-0.83
4.6,-0.835
4.602777777777778,-0.845
4.605555555555555,-0.84
4.608333333333333,-0.84
4.611111111111111,-0.83
4.613888888888889,-0.83
4.616666666666666,-0.815
4.6194444444444445,-0.8
4.622222222222222,-0.79
4.625,-0.79
4.627777777777778,-0.78
4.6305555555555555,-0.785
4.633333333333334,-0.78
4.636111111111111,-0.775
4.638888888888889,-0.765
4.641666666666667,-0.745
4.644444444444445,-0.725
4.647222222222222,-0.705
4.65,-0.675
4.652777777777778,-0.66
4.655555555555556,-0.65
4.658333333333333,-0.64
4.661111111111111,-0.62
4.663888888888889,-0.595
4.666666666666667,-0.585
4.669444444444444,-0.58
4.6722222222222225,-0.58
4.675,-0.555
4.677777777777778,-0.54
4.680555555555555,-0.535
4.683333333333334,-0.52
4.686111111111111,-0.49
4.688888888888889,-0.47
4.691666666666666,-0.465
4.694444444444445,-0.455
4.697222222222222,-0.455
4.7,-0.46
4.7027777777777775,-0.475
4.705555555555556,-0.455
4.708333333333333,-0.465
4.711111111111111,-0.455
4.713888888888889,-0.45
4.716666666666667,-0.445
4.719444444444444,-0.45
4.722222222222222,-0.45
4.725,-0.45
4.727777777777778,-0.455
4.730555555555555,-0.48
4.733333333333333,-0.505
4.736111111111111,-0.51
4.738888888888889,-0.52
4.741666666666666,-0.535
4.7444444444444445,-0.545
4.747222222222222,-0.55
4.75,-0.555
4.752777777777778,-0.555
4.7555555555555555,-0.565
4.758333333333334,-0.58
4.761111111111111,-0.585
4.763888888888889,-0.615
4.766666666666667,-0.62
4.769444444444445,-0.645
4.772222222222222,-0.655
4.775,-0.655
4.777777777777778,-0.665
4.780555555555556,-0.66
4.783333333333333,-0.655
4.786111111111111,-0.645
4.788888888888889,-0.65
4.791666666666667,-0.655
4.794444444444444,-0.665
4.7972222222222225,-0.675
4.8,-0.68
4.802777777777778,-0.69
4.805555555555555,-0.695
4.808333333333334,-0.69
4.811111111111111,-0.68
4.813888888888889,-0.675
4.816666666666666,-0.665
4.819444444444445,-0.65
4.822222222222222,-0.635
4.825,-0.65
4.8277777777777775,-0.64
4.830555555555556,-0.65
4.833333333333333,-0.65
4.836111111111111,-0.655
4.838888888888889,-0.65
4.841666666666667,-0.645
4.844444444444444,-0.65
4.847222222222222,-0.635
4.85,-0.615
4.852777777777778,-0.62
4.855555555555555,-0.605
4.858333333333333,-0.62
4.861111111111111,-0.615
4.863888888888889,-0.625
4.866666666666666,-0.61
4.8694444444444445,-0.62
4.872222222222222,-0.62
4.875,-0.625
4.877777777777778,-0.63
4.8805555555555555,-0.615
4.883333333333334,-0.595
4.886111111111111,-0.595
4.888888888888889,-0.575
4.891666666666667,-0.59
4.894444444444445,-0.58
4.897222222222222,-0.58
4.9,-0.59
4.902777777777778,-0.595
4.905555555555556,-0.59
4.908333333333333,-0.59
4.911111111111111,-0.58
4.913888888888889,-0.57
4.916666666666667,-0.565
4.919444444444444,-0.56
4.9222222222222225,-0.55
4.925,-0.565
4.927777777777778,-0.575
4.930555555555555,-0.57
4.933333333333334,-0.58
4.936111111111111,-0.575
4.938888888888889,-0.595
4.941666666666666,-0.595
4.944444444444445,-0.58
4.947222222222222,-0.575
4.95,-0.57
4.9527777777777775,-0.565
4.955555555555556,-0.56
4.958333333333333,-0.55
4.961111111111111,-0.555
4.963888888888889,-0.57
4.966666666666667,-0.565
4.969444444444444,-0.58
4.972222222222222,-0.575
4.975,-0.585
4.977777777777778,-0.58
4.980555555555555,-0.58
4.983333333333333,-0.565
4.986111111111111,-0.555
4.988888888888889,-0.55
4.991666666666666,-0.555
4.9944444444444445,-0.555
4.997222222222222,-0.565
5.0,-0.56
5.002777777777778,-0.57
5.0055555555555555,-0.57
5.008333333333334,-0.575
5.011111111111111,-0.57
5.013888888888889,-0.575
5.016666666666667,-0.555
5.019444444444445,-0.56
5.022222222222222,-0.555
5.025,-0.55
5.027777777777778,-0.56
5.030555555555556,-0.57
5.033333333333333,-0.565
5.036111111111111,-0.575
5.038888888888889,-0.58
5.041666666666667,-0.565
5.044444444444444,-0.56
5.0472222222222225,-0.555
5.05,-0.555
5.052777777777778,-0.545
5.055555555555555,-0.55
5.058333333333334,-0.55
5.061111111111111,-0.55
5.063888888888889,-0.575
5.066666666666666,-0.565
5.069444444444445,-0.565
5.072222222222222,-0.57
5.075,-0.565
5.0777777777777775,-0.565
5.080555555555556,-0.555
5.083333333333333,-0.54
5.086111111111111,-0.555
5.088888888888889,-0.55
5.091666666666667,-0.56
5.094444444444444,-0.56
5.097222222222222,-0.555
5.1,-0.575
5.102777777777778,-0.57
5.105555555555555,-0.575
5.108333333333333,-0.58
5.111111111111111,-0.57
5.113888888888889,-0.565
5.116666666666666,-0.55
5.1194444444444445,-0.545
5.122222222222222,-0.535
5.125,-0.545
5.127777777777778,-0.54
5.1305555555555555,-0.555
5.133333333333334,-0.555
5.136111111111111,-0.565
5.138888888888889,-0.56
5.141666666666667,-0.56
5.144444444444445,-0.56
5.147222222222222,-0.555
5.15,-0.565
5.152777777777778,-0.555
5.155555555555556,-0.55
5.158333333333333,-0.555
5.161111111111111,-0.555
5.163888888888889,-0.55
5.166666666666667,-0.555
5.169444444444444,-0.565
5.1722222222222225,-0.56
5.175,-0.55
5.177777777777778,-0.555
5.180555555555555,-0.56
5.183333333333334,-0.57
5.186111111111111,-0.565
5.188888888888889,-0.56
5.191666666666666,-0.55
5.194444444444445,-0.555
5.197222222222222,-0.555
5.2,-0.55
5.2027777777777775,-0.57
5.205555555555556,-0.565
5.208333333333333,-0.57
5.211111111111111,-0.565
5.213888888888889,-0.56
5.216666666666667,-0.555
5.219444444444444,-0.55
5.222222222222222,-0.545
5.225,-0.55
5.227777777777778,-0.555
5.230555555555555,-0.555
5.233333333333333,-0.565
5.236111111111111,-0.565
5.238888888888889,-0.57
5.241666666666666,-0.585
5.2444444444444445,-0.575
5.247222222222222,-0.57
5.25,-0.55
5.252777777777778,-0.55
5.2555555555555555,-0.535
5.258333333333334,-0.55
5.261111111111111,-0.56
5.263888888888889,-0.555
5.266666666666667,-0.565
5.269444444444445,-0.565
5.272222222222222,-0.565
5.275,-0.57
5.277777777777778,-0.56
5.280555555555556,-0.565
5.283333333333333,-0.55
5.286111111111111,-0.54
5.288888888888889,-0.535
5.291666666666667,-0.54
5.294444444444444,-0.55
5.2972222222222225,-0.55
5.3,-0.57
5.302777777777778,-0.565
5.305555555555555,-0.565
5.308333333333334,-0.56
5.311111111111111,-0.55
5.313888888888889,-0.53
5.316666666666666,-0.54
5.319444444444445,-0.53
5.322222222222222,-0.525
5.325,-0.535
5.3277777777777775,-0.535
5.330555555555556,-0.55
5.333333333333333,-0.54
5.336111111111111,-0.54
5.338888888888889,-0.53
5.341666666666667,-0.52
5.344444444444444,-0.51
5.347222222222222,-0.495
5.35,-0.485
5.352777777777778,-0.48
5.355555555555555,-0.485
5.358333333333333,-0.49
5.361111111111111,-0.5
5.363888888888889,-0.515
5.366666666666666,-0.53
5.3694444444444445,-0.53
5.372222222222222,-0.55
5.375,-0.545
5.377777777777778,-0.555
5.3805555555555555,-0.545
5.383333333333334,-0.53
5.386111111111111,-0.505
5.388888888888889,-0.49
5.391666666666667,-0.48
5.394444444444445,-0.495
5.397222222222222,-0.49
5.4,-0.505
5.402777777777778,-0.525
5.405555555555556,-0.535
5.408333333333333,-0.545
5.411111111111111,-0.555
5.413888888888889,-0.565
5.416666666666667,-0.56
5.419444444444444,-0.565
5.4222222222222225,-0.57
5.425,-0.585
5.427777777777778,-0.58
5.430555555555555,-0.59
5.433333333333334,-0.6
5.436111111111111,-0.6
5.438888888888889,-0.6
5.441666666666666,-0.595
5.444444444444445,-0.6
5.447222222222222,-0.58
5.45,-0.595
5.4527777777777775,-0.585
5.455555555555556,-0.6
5.458333333333333,-0.59
5.461111111111111,-0.55
5.463888888888889,-0.475
5.466666666666667,-0.38
5.469444444444444,-0.3
5.472222222222222,-0.23
5.475,-0.185
5.477777777777778,-0.185
5.480555555555555,-0.26
5.483333333333333,-0.42
5.486111111111111,-0.59
5.488888888888889,-0.69
5.491666666666666,-0.685
5.4944444444444445,-0.57
5.497222222222222,-0.36
5.5,-0.11
5.502777777777778,0.15
5.5055555555555555,0.39
5.508333333333334,0.615
5.511111111111111,0.82
5.513888888888889,1.0
5.516666666666667,1.14
5.519444444444445,1.24
5.522222222222222,1.285
5.525,1.275
5.527777777777778,1.225
5.530555555555556,1.155
5.533333333333333,1.035
5.536111111111111,0.88
5.538888888888889,0.695
5.541666666666667,0.49
5.544444444444444,0.3
5.5472222222222225,0.11
5.55,-0.09
5.552777777777778,-0.295
5.555555555555555,-0.475
5.558333333333334,-0.635
5.561111111111111,-0.745
5.563888888888889,-0.805
5.566666666666666,-0.84
5.569444444444445,-0.84
5.572222222222222,-0.825
5.575,-0.795
5.5777777777777775,-0.765
5.580555555555556,-0.745
5.583333333333333,-0.715
5.586111111111111,-0.685
5.588888888888889,-0.685
5.591666666666667,-0.675
5.594444444444444,-0.685
5.597222222222222,-0.69
5.6,-0.715
5.602777777777778,-0.72
5.605555555555555,-0.72
5.608333333333333,-0.73
5.611111111111111,-0.73
5.613888888888889,-0.73
5.616666666666666,-0.71
5.6194444444444445,-0.7
5.622222222222222,-0.69
5.625,-0.7
5.627777777777778,-0.695
5.6305555555555555,-0.705
5.633333333333334,-0.705
5.636111111111111,-0.71
5.638888888888889,-0.71
5.641666666666667,-0.71
5.644444444444445,-0.72
5.647222222222222,-0.725
5.65,-0.715
5.652777777777778,-0.715
5.655555555555556,-0.705
5.658333333333333,-0.715
5.661111111111111,-0.715
5.663888888888889,-0.72
5.666666666666667,-0.735
5.669444444444444,-0.74
5.6722222222222225,-0.75
5.675,-0.74
5.677777777777778,-0.76
5.680555555555555,-0.765
5.683333333333334,-0.74
5.686111111111111,-0.74
5.688888888888889,-0.735
5.691666666666666,-0.74
5.694444444444445,-0.755
5.697222222222222,-0.765
5.7,-0.77
5.7027777777777775,-0.785
5.705555555555556,-0.785
5.708333333333333,-0.79
5.711111111111111,-0.785
5.713888888888889,-0.795
5.716666666666667,-0.785
5.719444444444444,-0.795
5.722222222222222,-0.8
5.725,-0.79
5.727777777777778,-0.81
5.730555555555555,-0.81
5.733333333333333,-0.82
5.736111111111111,-0.825
5.738888888888889,-0.84
5.741666666666666,-0.86
5.7444444444444445,-0.84
5.747222222222222,-0.845
5.75,-0.845
5.752777777777778,-0.845
5.7555555555555555,-0.845
5.758333333333334,-0.855
5.761111111111111,-0.865
5.763888888888889,-0.875
5.766666666666667,-0.885
5.769444444444445,-0.9
5.772222222222222,-0.925
5.775,-0.93
5.777777777777778,-0.925
5.780555555555556,-0.915
5.783333333333333,-0.915
5.786111111111111,-0.905
5.788888888888889,-0.91
5.791666666666667,-0.915
5.794444444444444,-0.925
5.7972222222222225,-0.94
5.8,-0.955
5.802777777777778,-0.945
5.805555555555555,-0.96
5.808333333333334,-0.95
5.811111111111111,-0.945
5.813888888888889,-0.935
5.816666666666666,-0.935
5.819444444444445,-0.92
5.822222222222222,-0.895
5.825,-0.9
5.8277777777777775,-0.89
5.830555555555556,-0.89
5.833333333333333,-0.885
5.836111111111111,-0.885
5.838888888888889,-0.865
5.841666666666667,-0.84
5.844444444444444,-0.825
5.847222222222222,-0.8
5.85,-0.79
5.852777777777778,-0.77
5.855555555555555,-0.74
5.858333333333333,-0.73
5.861111111111111,-0.72
5.863888888888889,-0.705
5.866666666666666,-0.7
5.8694444444444445,-0.69
5.872222222222222,-0.67
5.875,-0.66
5.877777777777778,-0.65
5.8805555555555555,-0.625
5.883333333333334,-0.605
5.886111111111111,-0.59
5.888888888888889,-0.58
5.891666666666667,-0.565
5.894444444444445,-0.555
5.897222222222222,-0.56
5.9,-0.565
5.902777777777778,-0.555
5.905555555555556,-0.565
5.908333333333333,-0.565
5.911111111111111,-0.57
5.913888888888889,-0.565
5.916666666666667,-0.59
5.919444444444444,-0.575
5.9222222222222225,-0.57
5.925,-0.57
5.927777777777778,-0.585
5.930555555555555,-0.605
5.933333333333334,-0.62
5.936111111111111,-0.645
5.938888888888889,-0.65
5.941666666666666,-0.655
5.944444444444445,-0.66
5.947222222222222,-0.665
5.95,-0.66
5.9527777777777775,-0.675
5.955555555555556,-0.68
5.958333333333333,-0.7
5.961111111111111,-0.695
5.963888888888889,-0.725
5.966666666666667,-0.72
5.969444444444444,-0.72
5.972222222222222,-0.74
5.975,-0.745
5.977777777777778,-0.745
5.980555555555555,-0.73
5.983333333333333,-0.73
5.986111111111111,-0.72
5.988888888888889,-0.715
5.991666666666666,-0.73
5.9944444444444445,-0.74
5.997222222222222,-0.74
6.0,-0.76
6.002777777777778,-0.765
6.0055555555555555,-0.76
6.008333333333334,-0.755
6.011111111111111,-0.765
6.013888888888889,-0.76
6.016666666666667,-0.74
6.019444444444445,-0.735
6.022222222222222,-0.725
6.025,-0.725
6.027777777777778,-0.725
6.030555555555556,-0.725
6.033333333333333,-0.73
6.036111111111111,-0.74
6.038888888888889,-0.735
6.041666666666667,-0.735
6.044444444444444,-0.745
6.0472222222222225,-0.725
6.05,-0.72
6.052777777777778,-0.725
6.055555555555555,-0.705
6.058333333333334,-0.7
6.061111111111111,-0.71
6.063888888888889,-0.715
6.066666666666666,-0.715
6.069444444444445,-0.715
6.072222222222222,-0.735
6.075,-0.73
6.0777777777777775,-0.725
6.080555555555556,-0.715
6.083333333333333,-0.7
6.086111111111111,-0.69
6.088888888888889,-0.695
6.091666666666667,-0.705
6.094444444444444,-0.705
6.097222222222222,-0.71
6.1,-0.705
6.102777777777778,-0.705
6.105555555555555,-0.715
6.108333333333333,-0.705
6.111111111111111,-0.7
6.113888888888889,-0.705
6.116666666666666,-0.69
6.1194444444444445,-0.68
6.122222222222222,-0.67
6.125,-0.68
6.127777777777778,-0.68
6.1305555555555555,-0.69
6.133333333333334,-0.685
6.136111111111111,-0.7
6.138888888888889,-0.7
6.141666666666667,-0.7
6.144444444444445,-0.71
6.147222222222222,-0.7
6.15,-0.685
6.152777777777778,-0.69
6.155555555555556,-0.675
6.158333333333333,-0.675
6.161111111111111,-0.685
6.163888888888889,-0.685
6.166666666666667,-0.685
6.169444444444444,-0.705
6.1722222222222225,-0.71
6.175,-0.71
6.177777777777778,-0.71
6.180555555555555,-0.705
6.183333333333334,-0.7
6.186111111111111,-0.705
6.188888888888889,-0.69
6.191666666666666,-0.675
6.194444444444445,-0.68
6.197222222222222,-0.685
6.2,-0.695
6.2027777777777775,-0.705
6.205555555555556,-0.71
6.208333333333333,-0.705
6.211111111111111,-0.705
6.213888888888889,-0.695
6.216666666666667,-0.7
6.219444444444444,-0.68
6.222222222222222,-0.675
6.225,-0.69
6.227777777777778,-0.7
6.230555555555555,-0.685
6.233333333333333,-0.7
6.236111111111111,-0.69
6.238888888888889,-0.695
6.241666666666666,-0.71
6.2444444444444445,-0.71
6.247222222222222,-0.69
6.25,-0.695
6.252777777777778,-0.685
6.2555555555555555,-0.67
6.258333333333334,-0.675
6.261111111111111,-0.685
6.263888888888889,-0.685
6.266666666666667,-0.685
6.269444444444445,-0.7
6.272222222222222,-0.705
6.275,-0.715
6.277777777777778,-0.71
6.280555555555556,-0.705
6.283333333333333,-0.695
6.286111111111111,-0.695
6.288888888888889,-0.695
6.291666666666667,-0.69
6.294444444444444,-0.69
6.2972222222222225,-0.69
6.3,-0.695
6.302777777777778,-0.7
6.305555555555555,-0.715
6.308333333333334,-0.715
6.311111111111111,-0.715
6.313888888888889,-0.715
6.316666666666666,-0.715
6.319444444444445,-0.7
6.322222222222222,-0.675
6.325,-0.685
6.3277777777777775,-0.69
6.330555555555556,-0.695
6.333333333333333,-0.715
6.336111111111111,-0.72
6.338888888888889,-0.725
6.341666666666667,-0.72
6.344444444444444,-0.71
6.347222222222222,-0.715
6.35,-0.71
6.352777777777778,-0.705
6.355555555555555,-0.71
6.358333333333333,-0.705
6.361111111111111,-0.705
6.363888888888889,-0.71
6.366666666666666,-0.705
6.3694444444444445,-0.705
6.372222222222222,-0.71
6.375,-0.705
6.377777777777778,-0.7
6.3805555555555555,-0.695
6.383333333333334,-0.685
6.386111111111111,-0.685
6.388888888888889,-0.675
6.391666666666667,-0.675
6.394444444444445,-0.685
6.397222222222222,-0.695
6.4,-0.7
6.402777777777778,-0.7
6.405555555555556,-0.72
6.408333333333333,-0.705
6.411111111111111,-0.7
6.413888888888889,-0.695
6.416666666666667,-0.68
6.419444444444444,-0.68
6.4222222222222225,-0.675
6.425,-0.675
6.427777777777778,-0.695
6.430555555555555,-0.695
6.433333333333334,-0.705
6.436111111111111,-0.72
6.438888888888889,-0.72
6.441666666666666,-0.715
6.444444444444445,-0.725
6.447222222222222,-0.7
6.45,-0.705
6.4527777777777775,-0.695
6.455555555555556,-0.69
6.458333333333333,-0.705
6.461111111111111,-0.7
6.463888888888889,-0.705
6.466666666666667,-0.695
6.469444444444444,-0.705
6.472222222222222,-0.72
6.475,-0.715
6.477777777777778,-0.72
6.480555555555555,-0.71
6.483333333333333,-0.7
6.486111111111111,-0.695
6.488888888888889,-0.685
6.491666666666666,-0.69
6.4944444444444445,-0.7
6.497222222222222,-0.7
6.5,-0.71
6.502777777777778,-0.73
6.5055555555555555,-0.735
6.508333333333334,-0.73
6.511111111111111,-0.715
6.513888888888889,-0.71
6.516666666666667,-0.71
6.519444444444445,-0.705
6.522222222222222,-0.69
6.525,-0.69
6.527777777777778,-0.705
6.530555555555556,-0.71
6.533333333333333,-0.715
6.536111111111111,-0.72
6.538888888888889,-0.725
6.541666666666667,-0.725
6.544444444444444,-0.72
6.5472222222222225,-0.715
6.55,-0.71
6.552777777777778,-0.71
6.555555555555555,-0.71
6.558333333333334,-0.7
6.561111111111111,-0.705
6.563888888888889,-0.705
6.566666666666666,-0.7
6.569444444444445,-0.7
6.572222222222222,-0.705
6.575,-0.705
6.5777777777777775,-0.695
6.580555555555556,-0.695
6.583333333333333,-0.695
6.586111111111111,-0.69
6.588888888888889,-0.69
6.591666666666667,-0.685
6.594444444444444,-0.685
6.597222222222222,-0.665
6.6,-0.67
6.602777777777778,-0.675
6.605555555555555,-0.655
6.608333333333333,-0.66
6.611111111111111,-0.655
6.613888888888889,-0.655
6.616666666666666,-0.65
6.6194444444444445,-0.655
6.622222222222222,-0.65
6.625,-0.665
6.627777777777778,-0.67
6.6305555555555555,-0.69
6.633333333333334,-0.685
6.636111111111111,-0.7
6.638888888888889,-0.705
6.641666666666667,-0.71
6.644444444444445,-0.695
6.647222222222222,-0.675
6.65,-0.66
6.652777777777778,-0.64
6.655555555555556,-0.625
6.658333333333333,-0.625
6.661111111111111,-0.625
6.663888888888889,-0.64
6.666666666666667,-0.66
6.669444444444444,-0.685
6.6722222222222225,-0.7
6.675,-0.72
6.677777777777778,-0.74
6.680555555555555,-0.74
6.683333333333334,-0.74
6.686111111111111,-0.745
6.688888888888889,-0.73
6.691666666666666,-0.73
6.694444444444445,-0.73
6.697222222222222,-0.745
6.7,-0.75
6.7027777777777775,-0.755
6.705555555555556,-0.76
6.708333333333333,-0.765
6.711111111111111,-0.765
6.713888888888889,-0.77
6.716666666666667,-0.775
6.719444444444444,-0.765
6.722222222222222,-0.73
6.725,-0.675
6.727777777777778,-0.595
6.730555555555555,-0.495
6.733333333333333,-0.435
6.736111111111111,-0.38
6.738888888888889,-0.36
6.741666666666666,-0.39
6.7444444444444445,-0.48
6.747222222222222,-0.615
6.75,-0.725
6.752777777777778,-0.79
6.7555555555555555,-0.74
6.758333333333334,-0.6
6.761111111111111,-0.37
6.763888888888889,-0.105
6.766666666666667,0.17
6.769444444444445,0.445
6.772222222222222,0.69
6.775,0.92
6.777777777777778,1.12
6.780555555555556,1.3
6.783333333333333,1.395
6.786111111111111,1.445
6.788888888888889,1.43
6.791666666666667,1.35
6.794444444444444,1.23
6.7972222222222225,1.03
6.8,0.79
6.802777777777778,0.535
6.805555555555555,0.295
6.808333333333334,0.065
6.811111111111111,-0.15
6.813888888888889,-0.39
6.816666666666666,-0.615
6.819444444444445,-0.79
6.822222222222222,-0.92
6.825,-1.005
6.8277777777777775,-1.045
6.830555555555556,-1.055
6.833333333333333,-1.04
6.836111111111111,-1.02
6.838888888888889,-1.005
6.841666666666667,-0.99
6.844444444444444,-0.965
6.847222222222222,-0.94
6.85,-0.915
6.852777777777778,-0.9
6.855555555555555,-0.9
6.858333333333333,-0.9
6.861111111111111,-0.905
6.863888888888889,-0.915
6.866666666666666,-0.91
6.8694444444444445,-0.92
6.872222222222222,-0.925
6.875,-0.92
6.877777777777778,-0.925
6.8805555555555555,-0.93
6.883333333333334,-0.905
6.886111111111111,-0.91
6.888888888888889,-0.895
6.891666666666667,-0.9
6.894444444444445,-0.905
6.897222222222222,-0.91
6.9,-0.915
6.902777777777778,-0.93
6.905555555555556,-0.92
6.908333333333333,-0.94
6.911111111111111,-0.925
6.913888888888889,-0.93
6.916666666666667,-0.93
6.919444444444444,-0.93
6.9222222222222225,-0.91
6.925,-0.92
6.927777777777778,-0.92
6.930555555555555,-0.925
6.933333333333334,-0.95
6.936111111111111,-0.94
6.938888888888889,-0.945
6.941666666666666,-0.95
6.944444444444445,-0.945
6.947222222222222,-0.945
6.95,-0.95
6.9527777777777775,-0.95
6.955555555555556,-0.93
6.958333333333333,-0.935
6.961111111111111,-0.945
6.963888888888889,-0.955
6.966666666666667,-0.965
6.969444444444444,-0.975
6.972222222222222,-0.98
6.975,-1.005
6.977777777777778,-1.0
6.980555555555555,-1.0
6.983333333333333,-0.975
6.986111111111111,-0.97
6.988888888888889,-0.975
6.991666666666666,-0.975
6.9944444444444445,-0.99
6.997222222222222,-1.0
7.0,-1.015
7.002777777777778,-1.025
7.0055555555555555,-1.03
7.008333333333334,-1.045
7.011111111111111,-1.04
7.013888888888889,-1.04
7.016666666666667,-1.03
7.019444444444445,-1.03
7.022222222222222,-1.03
7.025,-1.03
7.027777777777778,-1.05
7.030555555555556,-1.055
7.033333333333333,-1.07
7.036111111111111,-1.08
7.038888888888889,-1.09
7.041666666666667,-1.095
7.044444444444444,-1.1
7.0472222222222225,-1.09
7.05,-1.095
7.052777777777778,-1.085
7.055555555555555,-1.075
7.058333333333334,-1.085
7.061111111111111,-1.095
7.063888888888889,-1.1
7.066666666666666,-1.09
7.069444444444445,-1.105
7.072222222222222,-1.1
7.075,-1.1
7.0777777777777775,-1.09
7.080555555555556,-1.09
7.083333333333333,-1.065
7.086111111111111,-1.05
7.088888888888889,-1.04
7.091666666666667,-1.025
7.094444444444444,-1.015
7.097222222222222,-1.005
7.1,-1.0
7.102777777777778,-0.995
7.105555555555555,-0.99
7.108333333333333,-0.975
7.111111111111111,-0.96
7.113888888888889,-0.945
7.116666666666666,-0.92
7.1194444444444445,-0.895
7.122222222222222,-0.875
7.125,-0.86
7.127777777777778,-0.845
7.1305555555555555,-0.835
7.133333333333334,-0.83
7.136111111111111,-0.825
7.138888888888889,-0.81
7.141666666666667,-0.805
7.144444444444445,-0.795
7.147222222222222,-0.775
7.15,-0.78
7.152777777777778,-0.77
7.155555555555556,-0.75
7.158333333333333,-0.745
7.161111111111111,-0.74
7.163888888888889,-0.745
7.166666666666667,-0.75
7.169444444444444,-0.745
7.1722222222222225,-0.745
7.175,-0.75
7.177777777777778,-0.755
7.180555555555555,-0.75
7.183333333333334,-0.75
7.186111111111111,-0.745
7.188888888888889,-0.755
7.191666666666666,-0.77
7.194444444444445,-0.775
7.197222222222222,-0.785
7.2,-0.8
7.2027777777777775,-0.825
7.205555555555556,-0.835
7.208333333333333,-0.85
7.211111111111111,-0.865
7.213888888888889,-0.87
7.216666666666667,-0.875
7.219444444444444,-0.88
7.222222222222222,-0.88
7.225,-0.895
7.227777777777778,-0.9
7.230555555555555,-0.91
7.233333333333333,-0.915
7.236111111111111,-0.935
7.238888888888889,-0.935
7.241666666666666,-0.955
7.2444444444444445,-0.97
7.247222222222222,-0.955
7.25,-0.95
7.252777777777778,-0.955
7.2555555555555555,-0.94
7.258333333333334,-0.945
7.261111111111111,-0.95
7.263888888888889,-0.965
7.266666666666667,-0.98
7.269444444444445,-0.975
7.272222222222222,-0.98
7.275,-0.98
7.277777777777778,-0.975
7.280555555555556,-0.975
7.283333333333333,-0.95
7.286111111111111,-0.935
7.288888888888889,-0.935
7.291666666666667,-0.94
7.294444444444444,-0.94
7.2972222222222225,-0.93
7.3,-0.94
7.302777777777778,-0.945
7.305555555555555,-0.955
7.308333333333334,-0.945
7.311111111111111,-0.935
7.313888888888889,-0.935
7.316666666666666,-0.92
7.319444444444445,-0.915
7.322222222222222,-0.9
7.325,-0.895
7.3277777777777775,-0.91
7.330555555555556,-0.925
7.333333333333333,-0.925
7.336111111111111,-0.91
7.338888888888889,-0.915
7.341666666666667,-0.905
7.344444444444444,-0.895
7.347222222222222,-0.9
7.35,-0.89
7.352777777777778,-0.88
7.355555555555555,-0.875
7.358333333333333,-0.875
7.361111111111111,-0.875
7.363888888888889,-0.885
7.366666666666666,-0.88
7.3694444444444445,-0.885
7.372222222222222,-0.895
7.375,-0.89
7.377777777777778,-0.88
7.3805555555555555,-0.88
7.383333333333334,-0.865
7.386111111111111,-0.86
7.388888888888889,-0.855
7.391666666666667,-0.865
7.394444444444445,-0.865
7.397222222222222,-0.875
7.4,-0.87
7.402777777777778,-0.88
7.405555555555556,-0.885
7.408333333333333,-0.88
7.411111111111111,-0.875
7.413888888888889,-0.87
7.416666666666667,-0.855
7.419444444444444,-0.865
7.4222222222222225,-0.86
7.425,-0.855
7.427777777777778,-0.855
7.430555555555555,-0.85
7.433333333333334,-0.865
7.436111111111111,-0.875
7.438888888888889,-0.875
7.441666666666666,-0.88
7.444444444444445,-0.87
7.447222222222222,-0.875
7.45,-0.87
7.4527777777777775,-0.865
7.455555555555556,-0.84
7.458333333333333,-0.84
7.461111111111111,-0.845
7.463888888888889,-0.855
7.466666666666667,-0.865
7.469444444444444,-0.88
7.472222222222222,-0.875
7.475,-0.885
7.477777777777778,-0.875
7.480555555555555,-0.86
7.483333333333333,-0.86
7.486111111111111,-0.855
7.488888888888889,-0.84
7.491666666666666,-0.835
7.4944444444444445,-0.835
7.497222222222222,-0.845
7.5,-0.86
7.502777777777778,-0.88
7.5055555555555555,-0.88
7.508333333333334,-0.88
7.511111111111111,-0.865
7.513888888888889,-0.855
7.516666666666667,-0.845
7.519444444444445,-0.835
7.522222222222222,-0.83
7.525,-0.82
7.527777777777778,-0.835
7.530555555555556,-0.85
7.533333333333333,-0.845
7.536111111111111,-0.85
7.538888888888889,-0.865
7.541666666666667,-0.865
7.544444444444444,-0.86
7.5472222222222225,-0.86
7.55,-0.855
7.552777777777778,-0.84
7.555555555555555,-0.84
7.558333333333334,-0.845
7.561111111111111,-0.845
7.563888888888889,-0.855
7.566666666666666,-0.865
7.569444444444445,-0.87
7.572222222222222,-0.87
7.575,-0.885
7.5777777777777775,-0.87
7.580555555555556,-0.865
7.583333333333333,-0.845
7.586111111111111,-0.83
7.588888888888889,-0.825
7.591666666666667,-0.825
7.594444444444444,-0.835
7.597222222222222,-0.835
7.6,-0.85
7.602777777777778,-0.855
7.605555555555555,-0.85
7.608333333333333,-0.85
7.611111111111111,-0.855
7.613888888888889,-0.85
7.616666666666666,-0.835
7.6194444444444445,-0.835
7.622222222222222,-0.84
7.625,-0.835
7.627777777777778,-0.83
7.6305555555555555,-0.825
7.633333333333334,-0.835
7.636111111111111,-0.845
7.638888888888889,-0.85
7.641666666666667,-0.865
7.644444444444445,-0.86
7.647222222222222,-0.85
7.65,-0.835
7.652777777777778,-0.845
7.655555555555556,-0.825
7.658333333333333,-0.825
7.661111111111111,-0.82
7.663888888888889,-0.825
7.666666666666667,-0.84
7.669444444444444,-0.845
7.6722222222222225,-0.86
7.675,-0.855
7.677777777777778,-0.855
7.680555555555555,-0.855
7.683333333333334,-0.845
7.686111111111111,-0.845
7.688888888888889,-0.83
7.691666666666666,-0.825
7.694444444444445,-0.83
7.697222222222222,-0.835
7.7,-0.835
7.7027777777777775,-0.85
7.705555555555556,-0.855
7.708333333333333,-0.86
7.711111111111111,-0.855
7.713888888888889,-0.845
7.716666666666667,-0.83
7.719444444444444,-0.83
7.722222222222222,-0.82
7.725,-0.83
7.727777777777778,-0.83
7.730555555555555,-0.825
7.733333333333333,-0.83
7.736111111111111,-0.845
7.738888888888889,-0.85
7.741666666666666,-0.86
7.7444444444444445,-0.865
7.747222222222222,-0.845
7.75,-0.845
7.752777777777778,-0.825
7.7555555555555555,-0.805
7.758333333333334,-0.815
7.761111111111111,-0.82
7.763888888888889,-0.825
7.766666666666667,-0.83
7.769444444444445,-0.83
7.772222222222222,-0.84
7.775,-0.84
7.777777777777778,-0.835
7.780555555555556,-0.83
7.783333333333333,-0.825
7.786111111111111,-0.82
7.788888888888889,-0.8
7.791666666666667,-0.795
7.794444444444444,-0.8
7.7972222222222225,-0.805
7.8,-0.82
7.802777777777778,-0.825
7.805555555555555,-0.835
7.808333333333334,-0.84
7.811111111111111,-0.835
7.813888888888889,-0.825
7.816666666666666,-0.81
7.819444444444445,-0.795
7.822222222222222,-0.765
7.825,-0.76
7.8277777777777775,-0.755
7.830555555555556,-0.765
7.833333333333333,-0.77
7.836111111111111,-0.775
7.838888888888889,-0.795
7.841666666666667,-0.81
7.844444444444444,-0.82
7.847222222222222,-0.81
7.85,-0.8
7.852777777777778,-0.79
7.855555555555555,-0.78
7.858333333333333,-0.795
7.861111111111111,-0.8
7.863888888888889,-0.78
7.866666666666666,-0.775
7.8694444444444445,-0.785
7.872222222222222,-0.775
7.875,-0.775
7.877777777777778,-0.78
7.8805555555555555,-0.79
7.883333333333334,-0.795
7.886111111111111,-0.815
7.888888888888889,-0.83
7.891666666666667,-0.845
7.894444444444445,-0.855
7.897222222222222,-0.87
7.9,-0.87
7.902777777777778,-0.875
7.905555555555556,-0.88
7.908333333333333,-0.89
7.911111111111111,-0.895
7.913888888888889,-0.885
7.916666666666667,-0.875
7.919444444444444,-0.865
7.9222222222222225,-0.86
7.925,-0.875
7.927777777777778,-0.875
7.930555555555555,-0.885
7.933333333333334,-0.9
7.936111111111111,-0.91
7.938888888888889,-0.89
7.941666666666666,-0.85
7.944444444444445,-0.78
7.947222222222222,-0.68
7.95,-0.58
7.9527777777777775,-0.5
7.955555555555556,-0.445
7.958333333333333,-0.42
7.961111111111111,-0.435
7.963888888888889,-0.505
7.966666666666667,-0.64
7.969444444444444,-0.795
7.972222222222222,-0.955
7.975,-1.04
7.977777777777778,-1.04
7.980555555555555,-0.91
7.983333333333333,-0.72
7.986111111111111,-0.47
7.988888888888889,-0.215
7.991666666666666,0.0
7.9944444444444445,0.19
7.997222222222222,0.39
8.0,0.565
8.002777777777778,0.73
8.005555555555556,0.855
8.008333333333333,0.965
8.011111111111111,1.015
8.01388888888889,1.01
8.016666666666667,0.97
8.019444444444444,0.91
8.022222222222222,0.81
8.025,0.655
8.027777777777779,0.47
8.030555555555555,0.285
8.033333333333333,0.085
8.036111111111111,-0.1
8.03888888888889,-0.295
8.041666666666666,-0.515
8.044444444444444,-0.73
8.047222222222222,-0.885
8.05,-0.99
8.052777777777777,-1.07
8.055555555555555,-1.1
8.058333333333334,-1.105
8.061111111111112,-1.095
8.063888888888888,-1.075
8.066666666666666,-1.05
8.069444444444445,-1.03
8.072222222222223,-1.025
8.075,-1.015
8.077777777777778,-1.01
8.080555555555556,-1.005
8.083333333333334,-0.99
8.08611111111111,-0.975
8.088888888888889,-0.97
8.091666666666667,-0.96
8.094444444444445,-0.975
8.097222222222221,-0.985
8.1,-1.005
8.102777777777778,-1.005
8.105555555555556,-1.01
8.108333333333333,-1.0
8.11111111111111,-1.0
8.113888888888889,-1.0
8.116666666666667,-0.99
8.119444444444444,-0.985
8.122222222222222,-0.98
8.125,-0.985
8.127777777777778,-0.98
8.130555555555556,-0.99
8.133333333333333,-1.0
8.136111111111111,-1.005
8.13888888888889,-1.01
8.141666666666667,-1.01
8.144444444444444,-1.02
8.147222222222222,-1.025
8.15,-1.0
8.152777777777779,-1.02
8.155555555555555,-1.01
8.158333333333333,-0.99
8.161111111111111,-1.0
8.16388888888889,-1.005
8.166666666666666,-1.025
8.169444444444444,-1.02
8.172222222222222,-1.04
8.175,-1.06
8.177777777777777,-1.035
8.180555555555555,-1.045
8.183333333333334,-1.045
8.186111111111112,-1.045
8.188888888888888,-1.03
8.191666666666666,-1.035
8.194444444444445,-1.03
8.197222222222223,-1.025
8.2,-1.045
8.202777777777778,-1.05
8.205555555555556,-1.07
8.208333333333334,-1.07
8.21111111111111,-1.075
8.213888888888889,-1.08
8.216666666666667,-1.07
8.219444444444445,-1.08
8.222222222222221,-1.07
8.225,-1.08
8.227777777777778,-1.08
8.230555555555556,-1.09
8.233333333333333,-1.1
8.23611111111111,-1.11
8.238888888888889,-1.125
8.241666666666667,-1.13
8.244444444444444,-1.135
8.247222222222222,-1.125
8.25,-1.14
8.252777777777778,-1.15
8.255555555555556,-1.145
8.258333333333333,-1.14
8.261111111111111,-1.145
8.26388888888889,-1.155
8.266666666666667,-1.165
8.269444444444444,-1.17
8.272222222222222,-1.185
8.275,-1.19
8.277777777777779,-1.19
8.280555555555555,-1.2
8.283333333333333,-1.195
8.286111111111111,-1.19
8.28888888888889,-1.195
8.291666666666666,-1.2
8.294444444444444,-1.2
8.297222222222222,-1.2
8.3,-1.21
8.302777777777777,-1.225
8.305555555555555,-1.22
8.308333333333334,-1.225
8.311111111111112,-1.225
8.313888888888888,-1.215
8.316666666666666,-1.205
8.319444444444445,-1.19
8.322222222222223,-1.185
8.325,-1.17
8.327777777777778,-1.175
8.330555555555556,-1.17
8.333333333333334,-1.165
8.33611111111111,-1.165
8.338888888888889,-1.155
8.341666666666667,-1.14
8.344444444444445,-1.125
8.347222222222221,-1.11
8.35,-1.095
8.352777777777778,-1.08
8.355555555555556,-1.045
8.358333333333333,-1.03
8.36111111111111,-1.02
8.363888888888889,-1.01
8.366666666666667,-1.0
8.369444444444444,-0.985
8.372222222222222,-0.975
8.375,-0.96
8.377777777777778,-0.94
8.380555555555556,-0.93
8.383333333333333,-0.905
8.386111111111111,-0.905
8.38888888888889,-0.885
8.391666666666667,-0.88
8.394444444444444,-0.86
8.397222222222222,-0.855
8.4,-0.855
8.402777777777779,-0.86
8.405555555555555,-0.855
8.408333333333333,-0.85
8.411111111111111,-0.85
8.41388888888889,-0.85
8.416666666666666,-0.84
8.419444444444444,-0.84
8.422222222222222,-0.82
8.425,-0.84
8.427777777777777,-0.845
8.430555555555555,-0.865
8.433333333333334,-0.88
8.436111111111112,-0.89
8.438888888888888,-0.905
8.441666666666666,-0.915
8.444444444444445,-0.925
8.447222222222223,-0.925
8.45,-0.93
8.452777777777778,-0.935
8.455555555555556,-0.94
8.458333333333334,-0.95
8.46111111111111,-0.97
8.463888888888889,-0.975
8.466666666666667,-0.99
8.469444444444445,-1.0
8.472222222222221,-1.025
8.475,-1.02
8.477777777777778,-1.02
8.480555555555556,-1.025
8.483333333333333,-1.02
8.48611111111111,-1.015
8.488888888888889,-1.005
8.491666666666667,-1.015
8.494444444444444,-1.025
8.497222222222222,-1.025
8.5,-1.035
8.502777777777778,-1.04
8.505555555555556,-1.045
8.508333333333333,-1.045
8.511111111111111,-1.05
8.51388888888889,-1.045
8.516666666666667,-1.025
8.519444444444444,-1.025
8.522222222222222,-1.015
8.525,-1.02
8.527777777777779,-1.02
8.530555555555555,-1.02
8.533333333333333,-1.01
8.536111111111111,-1.025
8.53888888888889,-1.025
8.541666666666666,-1.025
8.544444444444444,-1.02
8.547222222222222,-1.01
8.55,-1.005
8.552777777777777,-0.99
8.555555555555555,-0.98
8.558333333333334,-0.98
8.561111111111112,-0.985
8.563888888888888,-0.995
8.566666666666666,-1.005
8.569444444444445,-0.995
8.572222222222223,-1.01
8.575,-0.99
8.577777777777778,-0.99
8.580555555555556,-1.0
8.583333333333334,-0.985
8.58611111111111,-0.99
8.588888888888889,-0.975
8.591666666666667,-0.97
8.594444444444445,-0.975
8.597222222222221,-0.98
8.6,-0.98
8.602777777777778,-0.985
8.605555555555556,-0.985
8.608333333333333,-0.99
8.61111111111111,-0.995
8.613888888888889,-0.98
8.616666666666667,-0.975
8.619444444444444,-0.965
8.622222222222222,-0.96
8.625,-0.96
8.627777777777778,-0.965
8.630555555555556,-0.97
8.633333333333333,-0.98
8.636111111111111,-0.985
8.63888888888889,-0.995
8.641666666666667,-0.995
8.644444444444444,-1.0
8.647222222222222,-0.98
8.65,-0.97
8.652777777777779,-0.965
8.655555555555555,-0.955
8.658333333333333,-0.95
8.661111111111111,-0.97
8.66388888888889,-0.975
8.666666666666666,-0.97
8.669444444444444,-1.0
8.672222222222222,-0.985
8.675,-0.985
8.677777777777777,-0.99
8.680555555555555,-0.985
8.683333333333334,-0.97
8.686111111111112,-0.965
8.688888888888888,-0.95
8.691666666666666,-0.96
8.694444444444445,-0.955
8.697222222222223,-0.965
8.7,-0.97
8.702777777777778,-0.985
8.705555555555556,-0.985
8.708333333333334,-0.98
8.71111111111111,-0.995
8.713888888888889,-0.97
8.716666666666667,-0.96
8.719444444444445,-0.96
8.722222222222221,-0.96
8.725,-0.965
8.727777777777778,-0.98
8.730555555555556,-0.975
8.733333333333333,-0.975
8.73611111111111,-0.98
8.738888888888889,-0.98
8.741666666666667,-0.98
8.744444444444444,-0.975
8.747222222222222,-0.985
8.75,-0.98
8.752777777777778,-0.97
8.755555555555556,-0.965
8.758333333333333,-0.955
8.761111111111111,-0.96
8.76388888888889,-0.97
8.766666666666667,-0.975
8.769444444444444,-0.98
8.772222222222222,-0.98
8.775,-0.98
8.777777777777779,-0.98
8.780555555555555,-0.98
8.783333333333333,-0.97
8.786111111111111,-0.965
8.78888888888889,-0.96
8.791666666666666,-0.96
8.794444444444444,-0.96
8.797222222222222,-0.97
8.8,-0.975
8.802777777777777,-0.975
8.805555555555555,-0.985
8.808333333333334,-0.995
8.811111111111112,-0.98
8.813888888888888,-0.975
8.816666666666666,-0.985
8.819444444444445,-0.975
8.822222222222223,-0.965
8.825,-0.96
8.827777777777778,-0.965
8.830555555555556,-0.98
8.833333333333334,-0.975
8.83611111111111,-0.99
8.838888888888889,-1.0
8.841666666666667,-1.0
8.844444444444445,-0.97
8.847222222222221,-0.975
8.85,-0.975
8.852777777777778,-0.955
8.855555555555556,-0.96
8.858333333333333,-0.955
8.86111111111111,-0.97
8.863888888888889,-0.975
8.866666666666667,-0.985
8.869444444444444,-0.995
8.872222222222222,-0.995
8.875,-0.995
8.877777777777778,-1.005
8.880555555555556,-0.985
8.883333333333333,-0.98
8.886111111111111,-0.975
8.88888888888889,-0.955
8.891666666666667,-0.95
8.894444444444444,-0.97
8.897222222222222,-0.97
8.9,-0.97
8.902777777777779,-0.98
8.905555555555555,-0.985
8.908333333333333,-0.98
8.911111111111111,-0.99
8.91388888888889,-0.97
8.916666666666666,-0.965
8.919444444444444,-0.96
8.922222222222222,-0.95
8.925,-0.955
8.927777777777777,-0.955
8.930555555555555,-0.96
8.933333333333334,-0.97
8.936111111111112,-0.975
8.938888888888888,-0.985
8.941666666666666,-0.985
8.944444444444445,-0.97
8.947222222222223,-0.97
8.95,-0.97
8.952777777777778,-0.955
8.955555555555556,-0.945
8.958333333333334,-0.94
8.96111111111111,-0.945
8.963888888888889,-0.95
8.966666666666667,-0.95
8.969444444444445,-0.965
8.972222222222221,-0.96
8.975,-0.965
8.977777777777778,-0.95
8.980555555555556,-0.96
8.983333333333333,-0.96
8.98611111111111,-0.95
8.988888888888889,-0.935
8.991666666666667,-0.925
8.994444444444444,-0.92
8.997222222222222,-0.925
9.0,-0.92
9.002777777777778,-0.915
9.005555555555556,-0.915
9.008333333333333,-0.91
9.011111111111111,-0.91
9.01388888888889,-0.905
9.016666666666667,-0.905
9.019444444444444,-0.905
9.022222222222222,-0.9
9.025,-0.9
9.027777777777779,-0.91
9.030555555555555,-0.93
9.033333333333333,-0.94
9.036111111111111,-0.94
9.03888888888889,-0.955
9.041666666666666,-0.96
9.044444444444444,-0.945
9.047222222222222,-0.935
9.05,-0.915
9.052777777777777,-0.9
9.055555555555555,-0.87
9.058333333333334,-0.865
9.061111111111112,-0.87
9.063888888888888,-0.89
9.066666666666666,-0.89
9.069444444444445,-0.91
9.072222222222223,-0.94
9.075,-0.965
9.077777777777778,-0.98
9.080555555555556,-0.985
9.083333333333334,-0.99
9.08611111111111,-1.0
9.088888888888889,-0.985
9.091666666666667,-0.985
9.094444444444445,-0.995
9.097222222222221,-0.98
9.1,-0.995
9.102777777777778,-0.99
9.105555555555556,-0.995
9.108333333333333,-1.01
9.11111111111111,-1.015
9.113888888888889,-1.025
9.116666666666667,-1.025
9.119444444444444,-1.005
9.122222222222222,-0.95
9.125,-0.88
9.127777777777778,-0.77
9.130555555555556,-0.69
9.133333333333333,-0.635
9.136111111111111,-0.59
9.13888888888889,-0.605
9.141666666666667,-0.655
9.144444444444444,-0.79
9.147222222222222,-0.93
9.15,-1.015
9.152777777777779,-1.01
9.155555555555555,-0.88
9.158333333333333,-0.665
9.161111111111111,-0.39
9.16388888888889,-0.105
9.166666666666666,0.165
9.169444444444444,0.435
9.172222222222222,0.66
9.175,0.855
9.177777777777777,1.035
9.180555555555555,1.165
9.183333333333334,1.25
9.186111111111112,1.26
9.188888888888888,1.21
9.191666666666666,1.115
9.194444444444445,0.955
9.197222222222223,0.75
9.2,0.51
9.202777777777778,0.26
9.205555555555556,0.015
9.208333333333334,-0.22
9.21111111111111,-0.44
9.213888888888889,-0.66
9.216666666666667,-0.85
9.219444444444445,-1.005
9.222222222222221,-1.125
9.225,-1.205
9.227777777777778,-1.245
9.230555555555556,-1.25
9.233333333333333,-1.255
9.23611111111111,-1.25
9.238888888888889,-1.225
9.241666666666667,-1.205
9.244444444444444,-1.185
9.247222222222222,-1.165
9.25,-1.145
9.252777777777778,-1.125
9.255555555555556,-1.11
9.258333333333333,-1.1
9.261111111111111,-1.105
9.26388888888889,-1.115
9.266666666666667,-1.13
9.269444444444444,-1.15
9.272222222222222,-1.15
9.275,-1.155
9.277777777777779,-1.145
9.280555555555555,-1.14
9.283333333333333,-1.135
9.286111111111111,-1.14
9.28888888888889,-1.13
9.291666666666666,-1.12
9.294444444444444,-1.115
9.297222222222222,-1.125
9.3,-1.14
9.302777777777777,-1.135
9.305555555555555,-1.16
9.308333333333334,-1.165
9.311111111111112,-1.17
9.313888888888888,-1.15
9.316666666666666,-1.15
9.319444444444445,-1.14
9.322222222222223,-1.13
9.325,-1.135
9.327777777777778,-1.14
9.330555555555556,-1.14
9.333333333333334,-1.155
9.33611111111111,-1.165
9.338888888888889,-1.17
9.341666666666667,-1.175
9.344444444444445,-1.175
9.347222222222221,-1.175
9.35,-1.17
9.352777777777778,-1.15
9.355555555555556,-1.145
9.358333333333333,-1.15
9.36111111111111,-1.16
9.363888888888889,-1.165
9.366666666666667,-1.18
9.369444444444444,-1.18
9.372222222222222,-1.185
9.375,-1.2
9.377777777777778,-1.205
9.380555555555556,-1.205
9.383333333333333,-1.195
9.386111111111111,-1.205
9.38888888888889,-1.19
9.391666666666667,-1.19
9.394444444444444,-1.2
9.397222222222222,-1.205
9.4,-1.215
9.402777777777779,-1.235
9.405555555555555,-1.25
9.408333333333333,-1.245
9.411111111111111,-1.265
9.41388888888889,-1.245
9.416666666666666,-1.255
9.419444444444444,-1.255
9.422222222222222,-1.25
9.425,-1.25
9.427777777777777,-1.245
9.430555555555555,-1.265
9.433333333333334,-1.275
9.436111111111112,-1.275
9.438888888888888,-1.3
9.441666666666666,-1.3
9.444444444444445,-1.3
9.447222222222223,-1.305
9.45,-1.305
9.452777777777778,-1.295
9.455555555555556,-1.295
9.458333333333334,-1.305
9.46111111111111,-1.295
9.463888888888889,-1.3
9.466666666666667,-1.31
9.469444444444445,-1.31
9.472222222222221,-1.315
9.475,-1.315
9.477777777777778,-1.31
9.480555555555556,-1.3
9.483333333333333,-1.295
9.48611111111111,-1.28
9.488888888888889,-1.27
9.491666666666667,-1.25
9.494444444444444,-1.225
9.497222222222222,-1.23
9.5,-1.205
9.502777777777778,-1.21
9.505555555555556,-1.19
9.508333333333333,-1.17
9.511111111111111,-1.17
9.51388888888889,-1.15
9.516666666666667,-1.12
9.519444444444444,-1.115
9.522222222222222,-1.08
9.525,-1.07
9.527777777777779,-1.055
9.530555555555555,-1.05
9.533333333333333,-1.035
9.536111111111111,-1.02
9.53888888888889,-1.015
9.541666666666666,-1.005
9.544444444444444,-1.01
9.547222222222222,-0.985
9.55,-0.975
9.552777777777777,-0.96
9.555555555555555,-0.935
9.558333333333334,-0.93
9.561111111111112,-0.94
9.563888888888888,-0.935
9.566666666666666,-0.935
9.569444444444445,-0.94
9.572222222222223,-0.95
9.575,-0.95
9.577777777777778,-0.965
9.580555555555556,-0.96
9.583333333333334,-0.97
9.58611111111111,-0.97
9.588888888888889,-0.965
9.591666666666667,-0.975
9.594444444444445,-0.99
9.597222222222221,-0.99
9.6,-1.015
9.602777777777778,-1.025
9.605555555555556,-1.045
9.608333333333333,-1.06
9.61111111111111,-1.06
9.613888888888889,-1.065
9.616666666666667,-1.075
9.619444444444444,-1.07
9.622222222222222,-1.075
9.625,-1.075
9.627777777777778,-1.095
9.630555555555556,-1.09
9.633333333333333,-1.095
9.636111111111111,-1.12
9.63888888888889,-1.125
9.641666666666667,-1.125
9.644444444444444,-1.125
9.647222222222222,-1.13
9.65,-1.125
9.652777777777779,-1.13
9.655555555555555,-1.12
9.658333333333333,-1.115
9.661111111111111,-1.12
9.66388888888889,-1.115
9.666666666666666,-1.125
9.669444444444444,-1.125
9.672222222222222,-1.135
9.675,-1.14
9.677777777777777,-1.135
9.680555555555555,-1.13
9.683333333333334,-1.12
9.686111111111112,-1.115
9.688888888888888,-1.105
9.691666666666666,-1.105
9.694444444444445,-1.11
9.697222222222223,-1.1
9.7,-1.1
9.702777777777778,-1.095
9.705555555555556,-1.095
9.708333333333334,-1.09
9.71111111111111,-1.085
9.713888888888889,-1.075
9.716666666666667,-1.065
9.719444444444445,-1.055
9.722222222222221,-1.055
9.725,-1.06
9.727777777777778,-1.07
9.730555555555556,-1.045
9.733333333333333,-1.06
9.73611111111111,-1.065
9.738888888888889,-1.06
9.741666666666667,-1.06
9.744444444444444,-1.065
9.747222222222222,-1.05
9.75,-1.04
9.752777777777778,-1.035
9.755555555555556,-1.03
9.758333333333333,-1.025
9.761111111111111,-1.025
9.76388888888889,-1.025
9.766666666666667,-1.03
9.769444444444444,-1.03
9.772222222222222,-1.05
9.775,-1.05
9.777777777777779,-1.05
9.780555555555555,-1.045
9.783333333333333,-1.03
9.786111111111111,-1.03
9.78888888888889,-1.02
9.791666666666666,-1.02
9.794444444444444,-1.02
9.797222222222222,-1.03
9.8,-1.04
9.802777777777777,-1.03
9.805555555555555,-1.04
9.808333333333334,-1.045
9.811111111111112,-1.04
9.813888888888888,-1.04
9.816666666666666,-1.03
9.819444444444445,-1.025
9.822222222222223,-1.01
9.825,-1.0
9.827777777777778,-1.0
9.830555555555556,-1.005
9.833333333333334,-1.015
9.83611111111111,-1.025
9.838888888888889,-1.03
9.841666666666667,-1.035
9.844444444444445,-1.03
9.847222222222221,-1.025
9.85,-1.015
9.852777777777778,-1.01
9.855555555555556,-1.0
9.858333333333333,-0.99
9.86111111111111,-0.995
9.863888888888889,-0.995
9.866666666666667,-1.005
9.869444444444444,-1.01
9.872222222222222,-1.01
9.875,-1.015
9.877777777777778,-1.025
9.880555555555556,-1.015
9.883333333333333,-1.005
9.886111111111111,-1.01
9.88888888888889,-1.0
9.891666666666667,-1.005
9.894444444444444,-1.0
9.897222222222222,-1.015
9.9,-1.035
9.902777777777779,-1.025
9.905555555555555,-1.035
9.908333333333333,-1.03
9.911111111111111,-1.01
9.91388888888889,-1.01
9.916666666666666,-1.02
9.919444444444444,-1.015
9.922222222222222,-0.995
9.925,-0.98
9.927777777777777,-0.98
9.930555555555555,-0.98
9.933333333333334,-0.995
9.936111111111112,-1.0
9.938888888888888,-1.0
9.941666666666666,-1.005
9.944444444444445,-1.005
9.947222222222223,-1.0
9.95,-0.985
9.952777777777778,-0.98
9.955555555555556,-0.975
9.958333333333334,-0.975
9.96111111111111,-0.97
9.963888888888889,-0.98
9.966666666666667,-0.99
9.969444444444445,-1.0
9.972222222222221,-0.995
9.975,-1.0
9.977777777777778,-1.0
9.980555555555556,-0.99
9.983333333333333,-0.985
9.98611111111111,-0.97
9.988888888888889,-0.955
9.991666666666667,-0.97
9.994444444444444,-0.97
9.997222222222222,-0.97
10.0,-0.985
10.002777777777778,-0.985
10.005555555555556,-0.98
10.008333333333333,-0.99
10.011111111111111,-0.985
10.01388888888889,-0.985
10.016666666666667,-0.975
10.019444444444444,-0.965
10.022222222222222,-0.965
10.025,-0.955
10.027777777777779,-0.965
10.030555555555555,-0.965
10.033333333333333,-0.97
10.036111111111111,-0.98
10.03888888888889,-0.975
10.041666666666666,-0.985
10.044444444444444,-0.985
10.047222222222222,-0.975
10.05,-0.97
10.052777777777777,-0.965
10.055555555555555,-0.95
10.058333333333334,-0.95
10.061111111111112,-0.95
10.063888888888888,-0.96
10.066666666666666,-0.97
10.069444444444445,-0.97
10.072222222222223,-0.98
10.075,-0.965
10.077777777777778,-0.975
10.080555555555556,-0.965
10.083333333333334,-0.96
10.08611111111111,-0.95
10.088888888888889,-0.95
10.091666666666667,-0.95
10.094444444444445,-0.955
10.097222222222221,-0.95
10.1,-0.96
10.102777777777778,-0.97
10.105555555555556,-0.965
10.108333333333333,-0.96
10.11111111111111,-0.96
10.113888888888889,-0.955
10.116666666666667,-0.955
10.119444444444444,-0.955
10.122222222222222,-0.95
10.125,-0.94
10.127777777777778,-0.935
10.130555555555556,-0.945
10.133333333333333,-0.945
10.136111111111111,-0.95
10.13888888888889,-0.96
10.141666666666667,-0.95
10.144444444444444,-0.96
10.147222222222222,-0.955
10.15,-0.96
10.152777777777779,-0.945
10.155555555555555,-0.93
10.158333333333333,-0.935
10.161111111111111,-0.925
10.16388888888889,-0.93
10.166666666666666,-0.93
10.169444444444444,-0.925
10.172222222222222,-0.93
10.175,-0.93
10.177777777777777,-0.925
10.180555555555555,-0.925
10.183333333333334,-0.92
10.186111111111112,-0.925
10.188888888888888,-0.915
10.191666666666666,-0.92
10.194444444444445,-0.915
10.197222222222223,-0.89
10.2,-0.9
10.202777777777778,-0.885
10.205555555555556,-0.895
10.208333333333334,-0.885
10.21111111111111,-0.875
10.213888888888889,-0.875
10.216666666666667,-0.86
10.219444444444445,-0.855
10.222222222222221,-0.865
10.225,-0.86
10.227777777777778,-0.885
10.230555555555556,-0.885
10.233333333333333,-0.89
10.23611111111111,-0.895
10.238888888888889,-0.9
10.241666666666667,-0.905
10.244444444444444,-0.9
10.247222222222222,-0.895
10.25,-0.885
10.252777777777778,-0.86
10.255555555555556,-0.85
10.258333333333333,-0.835
10.261111111111111,-0.83
10.26388888888889,-0.835
10.266666666666667,-0.865
10.269444444444444,-0.87
10.272222222222222,-0.885
10.275,-0.9
10.277777777777779,-0.91
10.280555555555555,-0.93
10.283333333333333,-0.94
10.286111111111111,-0.94
10.28888888888889,-0.935
10.291666666666666,-0.93
10.294444444444444,-0.96
10.297222222222222,-0.96
10.3,-0.965
10.302777777777777,-0.96
10.305555555555555,-0.97
10.308333333333334,-0.955
10.311111111111112,-0.965
10.313888888888888,-0.95
10.316666666666666,-0.935
10.319444444444445,-0.935
10.322222222222223,-0.945
10.325,-0.945
10.327777777777778,-0.96
10.330555555555556,-0.95
10.333333333333334,-0.92
10.33611111111111,-0.86
10.338888888888889,-0.78
10.341666666666667,-0.685
10.344444444444445,-0.6
10.347222222222221,-0.535
10.35,-0.5
10.352777777777778,-0.535
10.355555555555556,-0.64
10.358333333333333,-0.81
10.36111111111111,-0.97
10.363888888888889,-1.07
10.366666666666667,-1.035
10.369444444444444,-0.915
10.372222222222222,-0.705
10.375,-0.43
10.377777777777778,-0.155
10.380555555555556,0.09
10.383333333333333,0.33
10.386111111111111,0.53
10.38888888888889,0.71
10.391666666666667,0.85
10.394444444444444,0.935
10.397222222222222,0.985
10.4,0.98
10.402777777777779,0.945
10.405555555555555,0.86
10.408333333333333,0.75
10.411111111111111,0.605
10.41388888888889,0.405
10.416666666666666,0.205
10.419444444444444,0.015
10.422222222222222,-0.19
10.425,-0.4
10.427777777777777,-0.65
10.430555555555555,-0.825
10.433333333333334,-0.985
10.436111111111112,-1.1
10.438888888888888,-1.165
10.441666666666666,-1.19
10.444444444444445,-1.175
10.447222222222223,-1.135
10.45,-1.095
10.452777777777778,-1.065
10.455555555555556,-1.04
10.458333333333334,-1.02
10.46111111111111,-1.02
10.463888888888889,-1.015
10.466666666666667,-1.015
10.469444444444445,-1.04
10.472222222222221,-1.04
10.475,-1.05
10.477777777777778,-1.06
10.480555555555556,-1.05
10.483333333333333,-1.025
10.48611111111111,-1.02
10.488888888888889,-1.01
10.491666666666667,-1.005
10.494444444444444,-1.01
10.497222222222222,-1.015
10.5,-1.03
10.502777777777778,-1.04
10.505555555555556,-1.035
10.508333333333333,-1.04
10.511111111111111,-1.035
10.51388888888889,-1.03
10.516666666666667,-1.03
10.519444444444444,-1.03
10.522222222222222,-1.02
10.525,-1.005
10.527777777777779,-1.025
10.530555555555555,-1.02
10.533333333333333,-1.03
10.536111111111111,-1.04
10.53888888888889,-1.05
10.541666666666666,-1.055
10.544444444444444,-1.055
10.547222222222222,-1.055
10.55,-1.045
10.552777777777777,-1.055
10.555555555555555,-1.05
10.558333333333334,-1.045
10.561111111111112,-1.045
10.563888888888888,-1.055
10.566666666666666,-1.06
10.569444444444445,-1.07
10.572222222222223,-1.08
10.575,-1.075
10.577777777777778,-1.085
10.580555555555556,-1.085
10.583333333333334,-1.08
10.58611111111111,-1.075
10.588888888888889,-1.075
10.591666666666667,-1.07
10.594444444444445,-1.085
10.597222222222221,-1.095
10.6,-1.125
10.602777777777778,-1.145
10.605555555555556,-1.135
10.608333333333333,-1.135
10.61111111111111,-1.135
10.613888888888889,-1.145
10.616666666666667,-1.145
10.619444444444444,-1.14
10.622222222222222,-1.15
10.625,-1.14
10.627777777777778,-1.16
10.630555555555556,-1.155
10.633333333333333,-1.165
10.636111111111111,-1.17
10.63888888888889,-1.19
10.641666666666667,-1.195
10.644444444444444,-1.195
10.647222222222222,-1.195
10.65,-1.2
10.652777777777779,-1.19
10.655555555555555,-1.19
10.658333333333333,-1.2
10.661111111111111,-1.21
10.66388888888889,-1.225
10.666666666666666,-1.215
10.669444444444444,-1.22
10.672222222222222,-1.24
10.675,-1.235
10.677777777777777,-1.23
10.680555555555555,-1.225
10.683333333333334,-1.22
10.686111111111112,-1.205
10.688888888888888,-1.2
10.691666666666666,-1.185
10.694444444444445,-1.18
10.697222222222223,-1.185
10.7,-1.18
10.702777777777778,-1.175
10.705555555555556,-1.18
10.708333333333334,-1.175
10.71111111111111,-1.165
10.713888888888889,-1.135
10.716666666666667,-1.13
10.719444444444445,-1.1
10.722222222222221,-1.08
10.725,-1.05
10.727777777777778,-1.035
10.730555555555556,-1.035
10.733333333333333,-1.02
10.73611111111111,-1.015
10.738888888888889,-1.005
10.741666666666667,-0.98
10.744444444444444,-0.96
10.747222222222222,-0.945
10.75,-0.935
10.752777777777778,-0.915
10.755555555555556,-0.885
10.758333333333333,-0.875
10.761111111111111,-0.88
10.76388888888889,-0.86
10.766666666666667,-0.865
10.769444444444444,-0.86
10.772222222222222,-0.87
10.775,-0.875
10.777777777777779,-0.87
10.780555555555555,-0.86
10.783333333333333,-0.86
10.786111111111111,-0.855
10.78888888888889,-0.85
10.791666666666666,-0.845
10.794444444444444,-0.86
10.797222222222222,-0.875
10.8,-0.885
10.802777777777777,-0.895
10.805555555555555,-0.905
10.808333333333334,-0.92
10.811111111111112,-0.935
10.813888888888888,-0.945
10.816666666666666,-0.945
10.819444444444445,-0.95
10.822222222222223,-0.945
10.825,-0.945
10.827777777777778,-0.965
10.830555555555556,-0.985
10.833333333333334,-0.995
10.83611111111111,-0.995
10.838888888888889,-1.01
10.841666666666667,-1.02
10.844444444444445,-1.03
10.847222222222221,-1.02
10.85,-1.01
10.852777777777778,-1.01
10.855555555555556,-1.01
10.858333333333333,-1.005
10.86111111111111,-0.995
10.863888888888889,-1.01
10.866666666666667,-1.015
10.869444444444444,-1.015
10.872222222222222,-1.035
10.875,-1.025
10.877777777777778,-1.03
10.880555555555556,-1.035
10.883333333333333,-1.03
10.886111111111111,-1.015
10.88888888888889,-1.0
10.891666666666667,-0.995
10.894444444444444,-1.0
10.897222222222222,-0.99
10.9,-1.005
10.902777777777779,-1.0
10.905555555555555,-0.995
10.908333333333333,-0.995
10.911111111111111,-1.01
10.91388888888889,-1.0
10.916666666666666,-0.975
10.919444444444444,-0.975
10.922222222222222,-0.965
10.925,-0.96
10.927777777777777,-0.96
10.930555555555555,-0.96
10.933333333333334,-0.97
10.936111111111112,-0.975
10.938888888888888,-0.995
10.941666666666666,-0.975
10.944444444444445,-0.98
10.947222222222223,-0.97
10.95,-0.965
10.952777777777778,-0.96
10.955555555555556,-0.945
10.958333333333334,-0.945
10.96111111111111,-0.945
10.963888888888889,-0.94
10.966666666666667,-0.955
10.969444444444445,-0.945
10.972222222222221,-0.955
10.975,-0.965
10.977777777777778,-0.95
10.980555555555556,-0.95
10.983333333333333,-0.94
10.98611111111111,-0.935
10.988888888888889,-0.92
10.991666666666667,-0.915
10.994444444444444,-0.915
10.997222222222222,-0.925
11.0,-0.93
11.002777777777778,-0.925
11.005555555555556,-0.93
11.008333333333333,-0.935
11.011111111111111,-0.94
11.01388888888889,-0.94
11.016666666666667,-0.935
11.019444444444444,-0.925
11.022222222222222,-0.925
11.025,-0.92
11.027777777777779,-0.92
11.030555555555555,-0.92
11.033333333333333,-0.925
11.036111111111111,-0.93
11.03888888888889,-0.925
11.041666666666666,-0.935
11.044444444444444,-0.93
11.047222222222222,-0.945
11.05,-0.94
11.052777777777777,-0.92
11.055555555555555,-0.915
11.058333333333334,-0.925
11.061111111111112,-0.93
11.063888888888888,-0.92
11.066666666666666,-0.93
11.069444444444445,-0.94
11.072222222222223,-0.95
11.075,-0.94
11.077777777777778,-0.945
11.080555555555556,-0.945
11.083333333333334,-0.93
11.08611111111111,-0.925
11.088888888888889,-0.93
11.091666666666667,-0.9
11.094444444444445,-0.91
11.097222222222221,-0.91
11.1,-0.915
11.102777777777778,-0.92
11.105555555555556,-0.93
11.108333333333333,-0.925
11.11111111111111,-0.925
11.113888888888889,-0.925
11.116666666666667,-0.925
11.119444444444444,-0.915
11.122222222222222,-0.905
11.125,-0.895
11.127777777777778,-0.91
11.130555555555556,-0.915
11.133333333333333,-0.915
11.136111111111111,-0.91
11.13888888888889,-0.93
11.141666666666667,-0.935
11.144444444444444,-0.93
11.147222222222222,-0.925
11.15,-0.93
11.152777777777779,-0.92
11.155555555555555,-0.915
11.158333333333333,-0.905
11.161111111111111,-0.905
11.16388888888889,-0.895
11.166666666666666,-0.9
11.169444444444444,-0.91
11.172222222222222,-0.91
11.175,-0.91
11.177777777777777,-0.925
11.180555555555555,-0.915
11.183333333333334,-0.905
11.186111111111112,-0.89
11.188888888888888,-0.89
11.191666666666666,-0.88
11.194444444444445,-0.89
11.197222222222223,-0.89
11.2,-0.9
11.202777777777778,-0.905
11.205555555555556,-0.915
11.208333333333334,-0.91
11.21111111111111,-0.92
11.213888888888889,-0.89
11.216666666666667,-0.895
11.219444444444445,-0.9
11.222222222222221,-0.895
11.225,-0.88
11.227777777777778,-0.88
11.230555555555556,-0.89
11.233333333333333,-0.9
11.23611111111111,-0.915
11.238888888888889,-0.91
11.241666666666667,-0.91
11.244444444444444,-0.91
11.247222222222222,-0.91
11.25,-0.9
11.252777777777778,-0.895
11.255555555555556,-0.895
11.258333333333333,-0.895
11.261111111111111,-0.88
11.26388888888889,-0.885
11.266666666666667,-0.885
11.269444444444444,-0.89
11.272222222222222,-0.895
11.275,-0.895
11.277777777777779,-0.9
11.280555555555555,-0.905
11.283333333333333,-0.895
11.286111111111111,-0.885
11.28888888888889,-0.88
11.291666666666666,-0.87
11.294444444444444,-0.875
11.297222222222222,-0.88
11.3,-0.875
11.302777777777777,-0.89
11.305555555555555,-0.885
11.308333333333334,-0.89
11.311111111111112,-0.905
11.313888888888888,-0.9
11.316666666666666,-0.89
11.319444444444445,-0.89
11.322222222222223,-0.88
11.325,-0.865
11.327777777777778,-0.865
11.330555555555556,-0.86
11.333333333333334,-0.855
11.33611111111111,-0.86
11.338888888888889,-0.875
11.341666666666667,-0.885
11.344444444444445,-0.88
11.347222222222221,-0.87
11.35,-0.86
11.352777777777778,-0.855
11.355555555555556,-0.84
11.358333333333333,-0.83
11.36111111111111,-0.815
11.363888888888889,-0.805
11.366666666666667,-0.81
11.369444444444444,-0.815
11.372222222222222,-0.83
11.375,-0.835
11.377777777777778,-0.84
11.380555555555556,-0.85
11.383333333333333,-0.85
11.386111111111111,-0.855
11.38888888888889,-0.85
11.391666666666667,-0.845
11.394444444444444,-0.83
11.397222222222222,-0.84
11.4,-0.84
11.402777777777779,-0.825
11.405555555555555,-0.825
11.408333333333333,-0.805
11.411111111111111,-0.805
11.41388888888889,-0.8
11.416666666666666,-0.8
11.419444444444444,-0.81
11.422222222222222,-0.805
11.425,-0.81
11.427777777777777,-0.83
11.430555555555555,-0.85
11.433333333333334,-0.87
11.436111111111112,-0.9
11.438888888888888,-0.89
11.441666666666666,-0.915
11.444444444444445,-0.92
11.447222222222223,-0.91
11.45,-0.895
11.452777777777778,-0.89
11.455555555555556,-0.89
11.458333333333334,-0.885
11.46111111111111,-0.88
11.463888888888889,-0.88
11.466666666666667,-0.9
11.469444444444445,-0.91
11.472222222222221,-0.93
11.475,-0.925
11.477777777777778,-0.91
11.480555555555556,-0.865
11.483333333333333,-0.79
11.48611111111111,-0.705
11.488888888888889,-0.61
11.491666666666667,-0.53
11.494444444444444,-0.475
11.497222222222222,-0.475
11.5,-0.53
11.502777777777778,-0.63
11.505555555555556,-0.765
11.508333333333333,-0.885
11.511111111111111,-0.925
11.51388888888889,-0.835
11.516666666666667,-0.64
11.519444444444444,-0.355
11.522222222222222,-0.04
11.525,0.27
11.527777777777779,0.58
11.530555555555555,0.855
11.533333333333333,1.1
11.536111111111111,1.27
11.53888888888889,1.38
11.541666666666666,1.395
11.544444444444444,1.355
11.547222222222222,1.26
11.55,1.115
11.552777777777777,0.925
11.555555555555555,0.7
11.558333333333334,0.46
11.561111111111112,0.21
11.563888888888888,-0.03
11.566666666666666,-0.25
11.569444444444445,-0.495
11.572222222222223,-0.715
11.575,-0.895
11.577777777777778,-1.04
11.580555555555556,-1.13
11.583333333333334,-1.165
11.58611111111111,-1.145
11.588888888888889,-1.135
11.591666666666667,-1.115
11.594444444444445,-1.08
11.597222222222221,-1.075
11.6,-1.04
11.602777777777778,-1.04
11.605555555555556,-1.02
11.608333333333333,-1.035
11.61111111111111,-1.025
11.613888888888889,-1.015
11.616666666666667,-1.01
11.619444444444444,-1.015
11.622222222222222,-1.005
11.625,-1.01
11.627777777777778,-1.0
11.630555555555556,-1.0
11.633333333333333,-1.02
11.636111111111111,-1.015
11.63888888888889,-1.025
11.641666666666667,-1.03
11.644444444444444,-1.03
11.647222222222222,-1.035
11.65,-1.03
11.652777777777779,-1.01
11.655555555555555,-1.005
11.658333333333333,-1.0
11.661111111111111,-1.005
11.66388888888889,-1.015
11.666666666666666,-1.015
11.669444444444444,-1.02
11.672222222222222,-1.03
11.675,-1.04
11.677777777777777,-1.03
11.680555555555555,-1.03
11.683333333333334,-1.02
11.686111111111112,-1.02
11.688888888888888,-1.02
11.691666666666666,-1.015
11.694444444444445,-1.015
11.697222222222223,-1.03
11.7,-1.03
11.702777777777778,-1.04
11.705555555555556,-1.045
11.708333333333334,-1.045
11.71111111111111,-1.045
11.713888888888889,-1.055
11.716666666666667,-1.05
11.719444444444445,-1.05
11.722222222222221,-1.05
11.725,-1.03
11.727777777777778,-1.05
11.730555555555556,-1.045
11.733333333333333,-1.06
11.73611111111111,-1.07
11.738888888888889,-1.07
11.741666666666667,-1.085
11.744444444444444,-1.09
11.747222222222222,-1.095
11.75,-1.095
11.752777777777778,-1.095
11.755555555555556,-1.09
11.758333333333333,-1.09
11.761111111111111,-1.1
11.76388888888889,-1.105
11.766666666666667,-1.125
11.769444444444444,-1.13
11.772222222222222,-1.145
11.775,-1.145
11.777777777777779,-1.14
11.780555555555555,-1.14
11.783333333333333,-1.135
11.786111111111111,-1.13
11.78888888888889,-1.12
11.791666666666666,-1.13
11.794444444444444,-1.125
11.797222222222222,-1.135
11.8,-1.16
11.802777777777777,-1.165
11.805555555555555,-1.17
11.808333333333334,-1.18
11.811111111111112,-1.175
11.813888888888888,-1.17
11.816666666666666,-1.155
11.819444444444445,-1.16
11.822222222222223,-1.145
11.825,-1.16
11.827777777777778,-1.15
11.830555555555556,-1.155
11.833333333333334,-1.17
11.83611111111111,-1.175
11.838888888888889,-1.175
11.841666666666667,-1.185
11.844444444444445,-1.175
11.847222222222221,-1.155
11.85,-1.15
11.852777777777778,-1.13
11.855555555555556,-1.115
11.858333333333333,-1.095
11.86111111111111,-1.1
11.863888888888889,-1.09
11.866666666666667,-1.08
11.869444444444444,-1.07
11.872222222222222,-1.065
11.875,-1.055
11.877777777777778,-1.04
11.880555555555556,-1.03
11.883333333333333,-1.01
11.886111111111111,-0.985
11.88888888888889,-0.955
11.891666666666667,-0.94
11.894444444444444,-0.94
11.897222222222222,-0.915
11.9,-0.905
11.902777777777779,-0.905
11.905555555555555,-0.895
11.908333333333333,-0.885
11.911111111111111,-0.885
11.91388888888889,-0.86
11.916666666666666,-0.85
11.919444444444444,-0.835
11.922222222222222,-0.82
11.925,-0.8
11.927777777777777,-0.785
11.930555555555555,-0.785
11.933333333333334,-0.795
11.936111111111112,-0.795
11.938888888888888,-0.8
11.941666666666666,-0.815
11.944444444444445,-0.805
11.947222222222223,-0.815
11.95,-0.815
11.952777777777778,-0.815
11.955555555555556,-0.82
11.958333333333334,-0.815
11.96111111111111,-0.835
11.963888888888889,-0.845
11.966666666666667,-0.86
11.969444444444445,-0.865
11.972222222222221,-0.91
11.975,-0.93
11.977777777777778,-0.935
11.980555555555556,-0.935
11.983333333333333,-0.93
11.98611111111111,-0.94
11.988888888888889,-0.93
11.991666666666667,-0.94
11.994444444444444,-0.945
11.997222222222222,-0.955
12.0,-0.965
12.002777777777778,-0.98
12.005555555555556,-0.995
12.008333333333333,-1.01
12.011111111111111,-1.01
12.01388888888889,-1.005
12.016666666666667,-1.005
12.019444444444444,-1.0
12.022222222222222,-0.995
12.025,-0.99
12.027777777777779,-0.99
12.030555555555555,-0.995
12.033333333333333,-1.005
12.036111111111111,-1.01
12.03888888888889,-1.01
12.041666666666666,-1.015
12.044444444444444,-1.015
12.047222222222222,-1.02
12.05,-1.01
12.052777777777777,-1.005
12.055555555555555,-1.005
12.058333333333334,-0.98
12.061111111111112,-0.97
12.063888888888888,-0.97
12.066666666666666,-0.975
12.069444444444445,-0.975
12.072222222222223,-0.98
12.075,-0.975
12.077777777777778,-0.975
12.080555555555556,-0.98
12.083333333333334,-0.96
12.08611111111111,-0.95
12.088888888888889,-0.94
12.091666666666667,-0.935
12.094444444444445,-0.935
12.097222222222221,-0.925
12.1,-0.93
12.102777777777778,-0.925
12.105555555555556,-0.925
12.108333333333333,-0.935
12.11111111111111,-0.93
12.113888888888889,-0.94
12.116666666666667,-0.915
12.119444444444444,-0.925
12.122222222222222,-0.93
12.125,-0.91
12.127777777777778,-0.91
12.130555555555556,-0.9
12.133333333333333,-0.895
12.136111111111111,-0.905
12.13888888888889,-0.915
12.141666666666667,-0.92
12.144444444444444,-0.925
12.147222222222222,-0.9
12.15,-0.895
12.152777777777779,-0.89
12.155555555555555,-0.89
12.158333333333333,-0.88
12.161111111111111,-0.9
12.16388888888889,-0.89
12.166666666666666,-0.9
12.169444444444444,-0.905
12.172222222222222,-0.885
12.175,-0.895
12.177777777777777,-0.895
12.180555555555555,-0.89
12.183333333333334,-0.885
12.186111111111112,-0.885
12.188888888888888,-0.88
12.191666666666666,-0.88
12.194444444444445,-0.86
12.197222222222223,-0.865
12.2,-0.875
12.202777777777778,-0.88
12.205555555555556,-0.89
12.208333333333334,-0.885
12.21111111111111,-0.885
12.213888888888889,-0.87
12.216666666666667,-0.87
12.219444444444445,-0.865
12.222222222222221,-0.86
12.225,-0.86
12.227777777777778,-0.855
12.230555555555556,-0.87
12.233333333333333,-0.88
12.23611111111111,-0.88
12.238888888888889,-0.88
12.241666666666667,-0.885
12.244444444444444,-0.895
12.247222222222222,-0.88
12.25,-0.88
12.252777777777778,-0.86
12.255555555555556,-0.855
12.258333333333333,-0.85
12.261111111111111,-0.86
12.26388888888889,-0.85
12.266666666666667,-0.86
12.269444444444444,-0.87
12.272222222222222,-0.865
12.275,-0.87
12.277777777777779,-0.87
12.280555555555555,-0.87
12.283333333333333,-0.855
12.286111111111111,-0.855
12.28888888888889,-0.85
12.291666666666666,-0.84
12.294444444444444,-0.85
12.297222222222222,-0.855
12.3,-0.855
12.302777777777777,-0.855
12.305555555555555,-0.875
12.308333333333334,-0.86
12.311111111111112,-0.865
12.313888888888888,-0.85
12.316666666666666,-0.845
12.319444444444445,-0.845
12.322222222222223,-0.845
12.325,-0.825
12.327777777777778,-0.84
12.330555555555556,-0.835
12.333333333333334,-0.84
12.33611111111111,-0.835
12.338888888888889,-0.84
12.341666666666667,-0.845
12.344444444444445,-0.85
12.347222222222221,-0.85
12.35,-0.84
12.352777777777778,-0.835
12.355555555555556,-0.83
12.358333333333333,-0.825
12.36111111111111,-0.83
12.363888888888889,-0.835
12.366666666666667,-0.835
12.369444444444444,-0.865
12.372222222222222,-0.85
12.375,-0.855
12.377777777777778,-0.855
12.380555555555556,-0.855
12.383333333333333,-0.84
12.386111111111111,-0.835
12.38888888888889,-0.83
12.391666666666667,-0.815
12.394444444444444,-0.825
12.397222222222222,-0.825
12.4,-0.825
12.402777777777779,-0.82
12.405555555555555,-0.835
12.408333333333333,-0.84
12.411111111111111,-0.83
12.41388888888889,-0.835
12.416666666666666,-0.82
12.419444444444444,-0.82
12.422222222222222,-0.81
12.425,-0.8
12.427777777777777,-0.8
12.430555555555555,-0.805
12.433333333333334,-0.81
12.436111111111112,-0.82
12.438888888888888,-0.825
12.441666666666666,-0.83
12.444444444444445,-0.825
12.447222222222223,-0.825
12.45,-0.825
12.452777777777778,-0.825
12.455555555555556,-0.81
12.458333333333334,-0.805
12.46111111111111,-0.805
12.463888888888889,-0.805
12.466666666666667,-0.82
12.469444444444445,-0.82
12.472222222222221,-0.82
12.475,-0.81
12.477777777777778,-0.815
12.480555555555556,-0.81
12.483333333333333,-0.82
12.48611111111111,-0.805
12.488888888888889,-0.8
12.491666666666667,-0.8
12.494444444444444,-0.8
12.497222222222222,-0.795
12.5,-0.805
12.502777777777778,-0.805
12.505555555555556,-0.81
12.508333333333333,-0.815
12.511111111111111,-0.805
12.51388888888889,-0.81
12.516666666666667,-0.81
12.519444444444444,-0.795
12.522222222222222,-0.785
12.525,-0.785
12.527777777777779,-0.78
12.530555555555555,-0.78
12.533333333333333,-0.785
12.536111111111111,-0.785
12.53888888888889,-0.79
12.541666666666666,-0.78
12.544444444444444,-0.795
12.547222222222222,-0.79
12.55,-0.785
12.552777777777777,-0.78
12.555555555555555,-0.77
12.558333333333334,-0.745
12.561111111111112,-0.74
12.563888888888888,-0.74
12.566666666666666,-0.745
12.569444444444445,-0.745
12.572222222222223,-0.735
12.575,-0.74
12.577777777777778,-0.735
12.580555555555556,-0.745
12.583333333333334,-0.745
12.58611111111111,-0.745
12.588888888888889,-0.735
12.591666666666667,-0.735
12.594444444444445,-0.745
12.597222222222221,-0.745
12.6,-0.75
12.602777777777778,-0.745
12.605555555555556,-0.755
12.608333333333333,-0.765
12.61111111111111,-0.73
12.613888888888889,-0.72
12.616666666666667,-0.71
12.619444444444444,-0.705
12.622222222222222,-0.715
12.625,-0.715
12.627777777777778,-0.725
12.630555555555556,-0.74
12.633333333333333,-0.755
12.636111111111111,-0.775
12.63888888888889,-0.785
12.641666666666667,-0.8
12.644444444444444,-0.81
12.647222222222222,-0.815
12.65,-0.815
12.652777777777779,-0.815
12.655555555555555,-0.805
12.658333333333333,-0.795
12.661111111111111,-0.795
12.66388888888889,-0.795
12.666666666666666,-0.8
12.669444444444444,-0.81
12.672222222222222,-0.82
12.675,-0.83
12.677777777777777,-0.815
12.680555555555555,-0.82
12.683333333333334,-0.82
12.686111111111112,-0.835
12.688888888888888,-0.815
12.691666666666666,-0.785
12.694444444444445,-0.72
12.697222222222223,-0.65
12.7,-0.56
12.702777777777778,-0.485
12.705555555555556,-0.43
12.708333333333334,-0.4
12.71111111111111,-0.41
12.713888888888889,-0.47
12.716666666666667,-0.585
12.719444444444445,-0.73
12.722222222222221,-0.87
12.725,-0.94
12.727777777777778,-0.88
12.730555555555556,-0.74
12.733333333333333,-0.535
12.73611111111111,-0.295
12.738888888888889,-0.04
12.741666666666667,0.2
12.744444444444444,0.43
12.747222222222222,0.645
12.75,0.835
12.752777777777778,0.99
12.755555555555556,1.1
12.758333333333333,1.15
12.761111111111111,1.14
12.76388888888889,1.085
12.766666666666667,0.985
12.769444444444444,0.845
12.772222222222222,0.655
12.775,0.46
12.777777777777779,0.26
12.780555555555555,0.065
12.783333333333333,-0.14
12.786111111111111,-0.365
12.78888888888889,-0.565
12.791666666666666,-0.735
12.794444444444444,-0.89
12.797222222222222,-0.975
12.8,-1.02
12.802777777777777,-1.035
12.805555555555555,-1.025
12.808333333333334,-0.985
12.811111111111112,-0.96
12.813888888888888,-0.93
12.816666666666666,-0.905
12.819444444444445,-0.9
12.822222222222223,-0.875
12.825,-0.855
12.827777777777778,-0.87
12.830555555555556,-0.865
12.833333333333334,-0.875
12.83611111111111,-0.875
12.838888888888889,-0.89
12.841666666666667,-0.89
12.844444444444445,-0.89
12.847222222222221,-0.895
12.85,-0.895
12.852777777777778,-0.88
12.855555555555556,-0.875
12.858333333333333,-0.86
12.86111111111111,-0.865
12.863888888888889,-0.885
12.866666666666667,-0.875
12.869444444444444,-0.895
12.872222222222222,-0.905
12.875,-0.91
12.877777777777778,-0.915
12.880555555555556,-0.915
12.883333333333333,-0.895
12.886111111111111,-0.89
12.88888888888889,-0.88
12.891666666666667,-0.875
12.894444444444444,-0.87
12.897222222222222,-0.87
12.9,-0.875
12.902777777777779,-0.895
12.905555555555555,-0.895
12.908333333333333,-0.905
12.911111111111111,-0.91
12.91388888888889,-0.91
12.916666666666666,-0.9
12.919444444444444,-0.915
12.922222222222222,-0.905
12.925,-0.9
12.927777777777777,-0.915
12.930555555555555,-0.91
12.933333333333334,-0.915
12.936111111111112,-0.925
12.938888888888888,-0.94
12.941666666666666,-0.96
12.944444444444445,-0.955
12.947222222222223,-0.945
12.95,-0.94
12.952777777777778,-0.94
12.955555555555556,-0.93
12.958333333333334,-0.935
12.96111111111111,-0.945
12.963888888888889,-0.95
12.966666666666667,-0.965
12.969444444444445,-0.97
12.972222222222221,-0.98
12.975,-0.99
12.977777777777778,-0.985
12.980555555555556,-0.99
12.983333333333333,-0.995
12.98611111111111,-0.995
12.988888888888889,-0.99
12.991666666666667,-0.99
12.994444444444444,-0.995
12.997222222222222,-1.005
13.0,-1.01
13.002777777777778,-1.02
13.005555555555556,-1.035
13.008333333333333,-1.055
13.011111111111111,-1.05
13.01388888888889,-1.065
13.016666666666667,-1.06
13.019444444444444,-1.045
13.022222222222222,-1.055
13.025,-1.05
13.027777777777779,-1.065
13.030555555555555,-1.065
13.033333333333333,-1.075
13.036111111111111,-1.09
13.03888888888889,-1.075
13.041666666666666,-1.085
13.044444444444444,-1.08
13.047222222222222,-1.085
13.05,-1.075
13.052777777777777,-1.08
13.055555555555555,-1.065
13.058333333333334,-1.045
13.061111111111112,-1.04
13.063888888888888,-1.045
13.066666666666666,-1.04
13.069444444444445,-1.035
13.072222222222223,-1.04
13.075,-1.035
13.077777777777778,-1.025
13.080555555555556,-1.0
13.083333333333334,-1.005
13.08611111111111,-0.975
13.088888888888889,-0.95
13.091666666666667,-0.935
13.094444444444445,-0.915
13.097222222222221,-0.92
13.1,-0.885
13.102777777777778,-0.875
13.105555555555556,-0.88
13.108333333333333,-0.865
13.11111111111111,-0.84
13.113888888888889,-0.83
13.116666666666667,-0.8
13.119444444444444,-0.78
13.122222222222222,-0.755
13.125,-0.74
13.127777777777778,-0.72
13.130555555555556,-0.71
13.133333333333333,-0.71
13.136111111111111,-0.71
13.13888888888889,-0.715
13.141666666666667,-0.71
13.144444444444444,-0.705
13.147222222222222,-0.695
13.15,-0.7
13.152777777777779,-0.705
13.155555555555555,-0.695
13.158333333333333,-0.69
13.161111111111111,-0.705
13.16388888888889,-0.71
13.166666666666666,-0.73
13.169444444444444,-0.75
13.172222222222222,-0.765
13.175,-0.785
13.177777777777777,-0.79
13.180555555555555,-0.795
13.183333333333334,-0.815
13.186111111111112,-0.81
13.188888888888888,-0.82
13.191666666666666,-0.81
13.194444444444445,-0.835
13.197222222222223,-0.84
13.2,-0.86
13.202777777777778,-0.865
13.205555555555556,-0.88
13.208333333333334,-0.89
13.21111111111111,-0.9
13.213888888888889,-0.9
13.216666666666667,-0.895
13.219444444444445,-0.885
13.222222222222221,-0.88
13.225,-0.88
13.227777777777778,-0.885
13.230555555555556,-0.875
13.233333333333333,-0.885
13.23611111111111,-0.89
13.238888888888889,-0.895
13.241666666666667,-0.89
13.244444444444444,-0.895
13.247222222222222,-0.9
13.25,-0.89
13.252777777777778,-0.86
13.255555555555556,-0.85
13.258333333333333,-0.835
13.261111111111111,-0.84
13.26388888888889,-0.845
13.266666666666667,-0.855
13.269444444444444,-0.86
13.272222222222222,-0.875
13.275,-0.865
13.277777777777779,-0.86
13.280555555555555,-0.855
13.283333333333333,-0.845
13.286111111111111,-0.835
13.28888888888889,-0.83
13.291666666666666,-0.81
13.294444444444444,-0.81
13.297222222222222,-0.815
13.3,-0.815
13.302777777777777,-0.82
13.305555555555555,-0.83
13.308333333333334,-0.835
13.311111111111112,-0.835
13.313888888888888,-0.83
13.316666666666666,-0.835
13.319444444444445,-0.82
13.322222222222223,-0.815
13.325,-0.795
13.327777777777778,-0.795
13.330555555555556,-0.8
13.333333333333334,-0.8
13.33611111111111,-0.805
13.338888888888889,-0.82
13.341666666666667,-0.82
13.344444444444445,-0.82
13.347222222222221,-0.82
13.35,-0.83
13.352777777777778,-0.815
13.355555555555556,-0.81
13.358333333333333,-0.8
13.36111111111111,-0.79
13.363888888888889,-0.8
13.366666666666667,-0.8
13.369444444444444,-0.81
13.372222222222222,-0.81
13.375,-0.82
13.377777777777778,-0.815
13.380555555555556,-0.82
13.383333333333333,-0.805
13.386111111111111,-0.8
13.38888888888889,-0.795
13.391666666666667,-0.8
13.394444444444444,-0.785
13.397222222222222,-0.795
13.4,-0.795
13.402777777777779,-0.795
13.405555555555555,-0.805
13.408333333333333,-0.805
13.411111111111111,-0.815
13.41388888888889,-0.81
13.416666666666666,-0.805
13.419444444444444,-0.8
13.422222222222222,-0.79
13.425,-0.79
13.427777777777777,-0.795
13.430555555555555,-0.795
13.433333333333334,-0.8
13.436111111111112,-0.8
13.438888888888888,-0.805
13.441666666666666,-0.81
13.444444444444445,-0.815
13.447222222222223,-0.81
13.45,-0.795
13.452777777777778,-0.79
13.455555555555556,-0.78
13.458333333333334,-0.77
13.46111111111111,-0.775
13.463888888888889,-0.79
13.466666666666667,-0.795
13.469444444444445,-0.805
13.472222222222221,-0.805
13.475,-0.8
13.477777777777778,-0.805
13.480555555555556,-0.81
13.483333333333333,-0.8
13.48611111111111,-0.795
13.488888888888889,-0.78
13.491666666666667,-0.78
13.494444444444444,-0.775
13.497222222222222,-0.775
13.5,-0.795
13.502777777777778,-0.805
13.505555555555556,-0.81
13.508333333333333,-0.8
13.511111111111111,-0.81
13.51388888888889,-0.8
13.516666666666667,-0.79
13.519444444444444,-0.785
13.522222222222222,-0.785
13.525,-0.79
13.527777777777779,-0.775
13.530555555555555,-0.78
13.533333333333333,-0.78
13.536111111111111,-0.8
13.53888888888889,-0.8
13.541666666666666,-0.8
13.544444444444444,-0.815
13.547222222222222,-0.81
13.55,-0.805
13.552777777777777,-0.8
13.555555555555555,-0.795
13.558333333333334,-0.775
13.561111111111112,-0.775
13.563888888888888,-0.785
13.566666666666666,-0.79
13.569444444444445,-0.795
13.572222222222223,-0.81
13.575,-0.81
13.577777777777778,-0.805
13.580555555555556,-0.795
13.583333333333334,-0.805
13.58611111111111,-0.79
13.588888888888889,-0.785
13.591666666666667,-0.78
13.594444444444445,-0.78
13.597222222222221,-0.78
13.6,-0.8
13.602777777777778,-0.8
13.605555555555556,-0.805
13.608333333333333,-0.79
13.61111111111111,-0.805
13.613888888888889,-0.795
13.616666666666667,-0.795
13.619444444444444,-0.79
13.622222222222222,-0.785
13.625,-0.765
13.627777777777778,-0.775
13.630555555555556,-0.775
13.633333333333333,-0.785
13.636111111111111,-0.785
13.63888888888889,-0.795
13.641666666666667,-0.79
13.644444444444444,-0.805
13.647222222222222,-0.8
13.65,-0.79
13.652777777777779,-0.79
13.655555555555555,-0.78
13.658333333333333,-0.775
13.661111111111111,-0.78
13.66388888888889,-0.77
13.666666666666666,-0.77
13.669444444444444,-0.785
13.672222222222222,-0.79
13.675,-0.795
13.677777777777777,-0.8
13.680555555555555,-0.8
13.683333333333334,-0.785
13.686111111111112,-0.785
13.688888888888888,-0.77
13.691666666666666,-0.755
13.694444444444445,-0.76
13.697222222222223,-0.76
13.7,-0.755
13.702777777777778,-0.785
13.705555555555556,-0.79
13.708333333333334,-0.78
13.71111111111111,-0.775
13.713888888888889,-0.775
13.716666666666667,-0.77
13.719444444444445,-0.78
13.722222222222221,-0.76
13.725,-0.745
13.727777777777778,-0.74
13.730555555555556,-0.75
13.733333333333333,-0.75
13.73611111111111,-0.75
13.738888888888889,-0.74
13.741666666666667,-0.73
13.744444444444444,-0.745
13.747222222222222,-0.735
13.75,-0.71
13.752777777777778,-0.705
13.755555555555556,-0.7
13.758333333333333,-0.7
13.761111111111111,-0.7
13.76388888888889,-0.71
13.766666666666667,-0.73
13.769444444444444,-0.745
13.772222222222222,-0.755
13.775,-0.75
13.777777777777779,-0.75
13.780555555555555,-0.76
13.783333333333333,-0.755
13.786111111111111,-0.73
13.78888888888889,-0.705
13.791666666666666,-0.685
13.794444444444444,-0.685
13.797222222222222,-0.675
13.8,-0.695
13.802777777777777,-0.71
13.805555555555555,-0.735
13.808333333333334,-0.74
13.811111111111112,-0.76
13.813888888888888,-0.76
13.816666666666666,-0.78
13.819444444444445,-0.785
13.822222222222223,-0.78
13.825,-0.785
13.827777777777778,-0.78
13.830555555555556,-0.785
13.833333333333334,-0.79
13.83611111111111,-0.79
13.838888888888889,-0.805
13.841666666666667,-0.795
13.844444444444445,-0.8
13.847222222222221,-0.795
13.85,-0.795
13.852777777777778,-0.79
13.855555555555556,-0.785
13.858333333333333,-0.79
13.86111111111111,-0.79
13.863888888888889,-0.79
13.866666666666667,-0.76
13.869444444444444,-0.71
13.872222222222222,-0.65
13.875,-0.575
13.877777777777778,-0.49
13.880555555555556,-0.44
13.883333333333333,-0.4
13.886111111111111,-0.42
13.88888888888889,-0.49
13.891666666666667,-0.6
13.894444444444444,-0.72
13.897222222222222,-0.785
13.9,-0.775
13.902777777777779,-0.635
13.905555555555555,-0.43
13.908333333333333,-0.185
13.911111111111111,0.085
13.91388888888889,0.355
13.916666666666666,0.6
13.919444444444444,0.835
13.922222222222222,1.04
13.925,1.215
13.927777777777777,1.34
13.930555555555555,1.405
13.933333333333334,1.42
13.936111111111112,1.37
13.938888888888888,1.285
13.941666666666666,1.165
13.944444444444445,1.005
13.947222222222223,0.815
13.95,0.61
13.952777777777778,0.395
13.955555555555556,0.18
13.958333333333334,-0.02
13.96111111111111,-0.25
13.963888888888889,-0.48
13.966666666666667,-0.7
13.969444444444445,-0.885
13.972222222222221,-1.015
13.975,-1.075
13.977777777777778,-1.095
13.980555555555556,-1.07
13.983333333333333,-1.04
13.98611111111111,-1.005
13.988888888888889,-0.985
13.991666666666667,-0.94
13.994444444444444,-0.925
13.997222222222222,-0.92
14.0,-0.915
14.002777777777778,-0.93
14.005555555555556,-0.95
14.008333333333333,-0.945
14.011111111111111,-0.955
14.01388888888889,-0.945
14.016666666666667,-0.95
14.019444444444444,-0.935
14.022222222222222,-0.94
14.025,-0.935
14.027777777777779,-0.935
14.030555555555555,-0.935
14.033333333333333,-0.935
14.036111111111111,-0.945
14.03888888888889,-0.955
14.041666666666666,-0.96
14.044444444444444,-0.955
14.047222222222222,-0.97
14.05,-0.97
14.052777777777777,-0.965
14.055555555555555,-0.96
14.058333333333334,-0.955
14.061111111111112,-0.945
14.063888888888888,-0.965
14.066666666666666,-0.97
14.069444444444445,-0.98
14.072222222222223,-0.985
14.075,-0.985
14.077777777777778,-0.99
14.080555555555556,-0.995
14.083333333333334,-0.985
14.08611111111111,-0.99
14.088888888888889,-0.98
14.091666666666667,-0.98
14.094444444444445,-0.985
14.097222222222221,-0.985
14.1,-0.98
14.102777777777778,-1.0
14.105555555555556,-1.01
14.108333333333333,-1.02
14.11111111111111,-1.02
14.113888888888889,-1.025
14.116666666666667,-1.025
14.119444444444444,-1.005
14.122222222222222,-1.02
14.125,-1.015
14.127777777777778,-1.01
14.130555555555556,-1.015
14.133333333333333,-1.025
14.136111111111111,-1.03
14.13888888888889,-1.045
14.141666666666667,-1.055
14.144444444444444,-1.055
14.147222222222222,-1.06
14.15,-1.065
14.152777777777779,-1.065
14.155555555555555,-1.075
14.158333333333333,-1.07
14.161111111111111,-1.07
14.16388888888889,-1.075
14.166666666666666,-1.085
14.169444444444444,-1.095
14.172222222222222,-1.115
14.175,-1.115
14.177777777777777,-1.125
14.180555555555555,-1.125
14.183333333333334,-1.125
14.186111111111112,-1.125
14.188888888888888,-1.125
14.191666666666666,-1.125
